S_DIA1,S_DIA2,S_DIA3,S_DIA4,M_DIA1,M_DIA2,M_DIA3,M_DIA4,L_DIA1,L_DIA2,L_DIA3,L_DIA4
0.711017283936932,0.721587081411994,0.504848024457877,0.631418269060749,0.732535327438113,0.471577417721844,0.528639693922041,0.690048739293137,0.644678132986481,0.43873649691618,0.806236285679579,0.120513278166418
0.46550570688705,0.677951514201595,0.477379569221227,0.659027144076311,0.662669064210398,0.679519572302229,0.608101084844167,0.359951268841875,0.102601990782404,0.623026701900983,0.631608768648689,0.704396953006671
0.619863034582723,0.706238280019706,0.50296745361585,0.693809031010247,0.147304565225146,0.690396196021808,0.663250462826898,0.140777545685692,0.144294863149833,0.169495789395737,0.161477274804089,0.71044029936619
0.143794346214103,0.736039618530473,0.581138960683036,0.65229184707551,0.743439597100047,0.716748571657672,0.675316094293435,0.127489446573014,0.643690203415423,0.0942617867917165,0.799284332795223,0.733177744765576
0.57554035767611,0.697638311173243,0.557633262610704,0.64190508293721,0.808405405782856,0.147028702391396,0.708325457434592,0.135088773831265,0.690640075143475,0.15361852458953,0.823958036351028,0.756499411683492
0.714953387000896,0.762141623270634,0.607427270843406,0.686188825675009,0.446376865991981,0.619530388650993,0.732632146281737,0.643811107746668,0.764649372953454,0.545799028511424,0.822143230262454,0.755656026063134
0.730650616027424,0.740000172651578,0.717779233421856,0.640680732963631,0.836758593706014,0.119218959446709,0.663349624569146,0.628970117050765,0.830711142873097,0.647544798709691,0.764583229400767,0.766335246059276
0.705450337665275,0.634605578008854,0.618207387788231,0.693874136863767,0.830207981064156,0.543137488625047,0.71802582188943,0.650861369250279,0.856890841845117,0.431699722085497,0.805393195368743,0.302389941612086
0.721096787481829,0.699832385308355,0.672193356314489,0.675596459013035,0.16128900906902,0.236465309680992,0.552814670088571,0.575659492393595,0.85915999017848,0.135235747757399,0.821079838541098,0.0722463572862471
0.74421158794593,0.726323517096416,0.643379648426057,0.700983590714019,0.59462874817969,0.127905997857499,0.567902921350194,0.699232746729596,0.842320616010578,0.154974381211825,0.781301062207497,0.253806430292564
0.645139951553319,0.449731652927907,0.702532531675826,0.151234937185286,0.393564229470048,0.724622855822388,0.629037951198703,0.633487482834711,0.871407180252726,0.146997377654769,0.797089128162578,0.0348028778915592
0.72848059980395,0.683844066664422,0.717871591419003,0.611532066875981,0.500496584199907,0.751689336030738,0.611457193810703,0.68662185330162,0.766279455819299,0.516504597652493,0.807366832951804,0.0478267128956678
0.700768942543632,0.740346845067538,0.653338037444742,0.505484620377463,0.609956507759291,0.144783160356909,0.530548953036133,0.705373166117146,0.143970694204926,0.475668228090401,0.810750711949982,0.338565714982672
0.70502815604938,0.734023363714923,0.615027598710511,0.674153292861085,0.728595527530121,0.650239230606932,0.528345756821875,0.156150102447179,0.834155222844879,0.363352202598779,0.75104530274625,0.142258504025888
0.59069526057105,0.742546878549734,0.495951354723767,0.681983195793416,0.158419571745555,0.683730458750218,0.3214055898339,0.619436459120538,0.82951542386847,0.154547293484629,0.752508754216165,0.127841587802231
0.356203922220201,0.712146763214571,0.629950213657859,0.699777756794734,0.160357552397356,0.422958420236499,0.57534690921617,0.641501724387461,0.757761812391927,0.704318767634408,0.759735615056712,0
0.731605960262671,0.744162816365581,0.660791508429999,0.517923818543279,0.674054443477721,0.499330938136752,0.742745384551468,0.706631407195934,0.86070062381101,0.713922972733914,0.81350121091884,0.177311821801956
0.700364241197692,0.674042572512598,0.662864687736482,0.675279490377048,0.697499741836676,0.590162586246843,0.128678801098169,0.676398956277436,0.822145648184965,0.67885171796379,0.826639597254911,0
0.73221459621546,0.771008782601526,0.487271169815913,0.683501409174687,0.156659911423143,0.712502348902983,0.500359743450646,0.655327424985083,0.844852697648685,0.604681424696141,0.804210871147124,0.0695914125730448
0.708983357358398,0.777579062908697,0.667053886707799,0.666203519737372,0.697715969655862,0.480896611083598,0.708994949327373,0.604404491798898,0.863338709081133,0.713441675259665,0.743131238679706,0
0.698646097426239,0.723013574216957,0.56415991663999,0.669732304699137,0.607591873130713,0.68110215096224,0.455023414814023,0.66066270093815,0.709968279108752,0.731893466627814,0.745092446618885,0
0.713178118442507,0.731158902954874,0.593674723438316,0.622292686003345,0.434850930358847,0.718183915179605,0.592304693032441,0.633996420551949,0.811942987750459,0.715765280094458,0.759299786572176,0.144773965688699
0.490637781436674,0.766461650385147,0.598918762376635,0.711415579728402,0.670339587231629,0.589913316543345,0.562994792735507,0.598731753896161,0.817642143183168,0.714360846695973,0.751934511551344,0.241697269387027
0.727946784083632,0.75473602456322,0.425372709417623,0.717528183417187,0.622315342994264,0.72632681134126,0.701858909368613,0.648356753318341,0.856590712136902,0.752212752636093,0.775195556167363,0.666838076861226
0.738078992756228,0.758389389504665,0.541668040169424,0.717902662881761,0.121485188391519,0.74926590826406,0.578111873634578,0.556973637103048,0.779867761849955,0.73241489560213,0.749432586113645,0.0572289901493603
0.732948867424933,0.738764047313957,0.606001618771879,0.706084238755026,0.679929985139623,0.735982545377095,0.701897388623507,0.727757448268092,0.767137005690453,0.751519272946987,0.782355005961373,0.091632739409944
0.731793373361304,0.715946155083287,0.593368114677982,0.650987226060831,0.645002558316455,0.729608576467077,0.578423850892295,0.666963068874989,0.788978621528893,0.672051829472527,0.80565642325456,0.367896719769221
0.739097985337708,0.747852339641757,0.701643386117127,0.72964686923299,0.6988660595996,0.692035999083381,0.67905040924418,0.734414866009591,0.809905086695193,0.584794302343003,0.810256540405543,0.720741064532287
0.634294940002929,0.691098977895405,0.441778690918383,0.681111814354468,0.590201497701319,0.740010212374352,0.674930368159905,0.74810632742998,0.827907801447469,0.531083964521622,0.812544982584091,0.726488359672495
0.455436211857105,0.737940263570339,0.604691371143453,0.714601572138457,0.144414104379096,0.707850366802134,0.720129256005002,0.505133223378473,0.818010333705526,0.656909725945477,0.777081851506786,0.269228914994591
0.460357521202692,0.747102978749243,0.679596392743489,0.757178700244396,0.111808353773899,0.666822718550753,0.751613858959739,0.675924091306854,0.809547038674621,0.763673473458461,0.692870085884748,0.133877337519126
0.609940893693892,0.766382903046338,0.69171555295391,0.742821254296004,0.667269958620123,0.716292565140657,0.710731977149591,0.663347134138738,0.821099622724339,0.622771420742698,0.760769172863631,0.342951802887311
0.599493700428394,0.545400137723841,0.696165016648747,0.722609444963545,0.640164454029841,0.619279218698108,0.743038699951587,0.60096914517726,0.15911733938012,0.161845368032535,0.817479350348397,0.0338900359969147
0.681581585825261,0.787217452430861,0.707695202910292,0.724062590342045,0.739409910073689,0.727976804684255,0.781981563314146,0.677135149732243,0.699138612478181,0.162321741160034,0.799929038736968,0
0.619272102933697,0.785139165000061,0.713671491254248,0.739717258207711,0.165824040061928,0.70909461909696,0.787812748566784,0.694683670274234,0.742334882564271,0.793607668879801,0.817705542109277,0
0.72457561285238,0.797307437817791,0.710050730774148,0.735674936120506,0.141497308939105,0.632399823729017,0.781305154680301,0.70439932335804,0.748239975918116,0.786216063022238,0.804361564049679,0
0.555301874817655,0.814779698765494,0.581047144042404,0.733582349560464,0.738933631225525,0.688556948190261,0.739221127242182,0.688155958902495,0.786597344221801,0.756458071743999,0.813923365124431,0
0.614705656130794,0.827126651724214,0.622963818799392,0.729443052527476,0.59813327954728,0.685866363136101,0.769032476284288,0.65616751724185,0.154544023592223,0.796814073231743,0.790892691214622,0
0.65897834408835,0.829654771197987,0.604324995471795,0.744998874610396,0.15631309014017,0.559731055760529,0.772610313064465,0.70298562239284,0.764550341208729,0.751145865284513,0.808155327766051,0
0.642671668789114,0.784105417705755,0.65327041398022,0.682004359490233,0.139760254431052,0.36250416940261,0.752752443731786,0.749758462180819,0.748927811377615,0.775230207981303,0.812411368631069,0
0.659673762792636,0.777868362606136,0.601627814121556,0.736547456555378,0.613054551529031,0.615429915040013,0.724646396566401,0.641768831363811,0.756776084749942,0.771037740324826,0.821008066573499,0
0.691357036661819,0.781531186609331,0.725247262220334,0.740246323677222,0.533610132544551,0.543581152793829,0.739652673939132,0.597610878217885,0.724944617892994,0.785303339943847,0.822923764951625,0
0.719231258991552,0.802665492210882,0.724397316066063,0.752835935649866,0.570246098885794,0.708284962233691,0.734961726615656,0.690249405267214,0.760287228261546,0.811821722457066,0.82821119645007,0
0.691457698302643,0.791648075384288,0.694950920857631,0.163391374718782,0.621176120890014,0.654430546144305,0.75302796544766,0.623091942315725,0.769367300753251,0.816708817082015,0.804295082202105,0
0.444352798208689,0.791411756731238,0.680271220298483,0.747762505312007,0.684682682639859,0.619870129010252,0.63806762389342,0.690041434205669,0.768514341536209,0.816513865780132,0.829378490586458,0
0.702261875177947,0.80037152633873,0.665783084032551,0.743142845267242,0.745799908656645,0.719624333144657,0.732436991824298,0.705251876564945,0.764022033906511,0.825773169127242,0.754524040300793,0
0.598387239217042,0.794811731146244,0.671533795556646,0.754266798513253,0.632168359974929,0.167061097346946,0.580395895680865,0.732020127642234,0.764246129504932,0.797215111054478,0.804613859570965,0
0.575174579142576,0.819835811709783,0.619421892467241,0.728293265288431,0.728439056583057,0.653405039740651,0.679922265765426,0.699957281344843,0.766730454947863,0.834225841324676,0.77963026179805,0
0.705718151130472,0.829810566823066,0.641076759440477,0.743390860384716,0.752108892133438,0.14890913023245,0.713476231442896,0.686415064376902,0.761096371710163,0.829871468364639,0.761514877611973,0
0.7121858024343,0.802524117144748,0.688859662485829,0.704543590630848,0.546905333367646,0.605387578459454,0.680833060165653,0.650710859463362,0.753311533932247,0.805951914738654,0.789815607241999,0.0297390361372157
0.704632652806796,0.821885350764633,0.682177327650667,0.747662784528172,0.764759578983756,0.640722000795538,0.589112764726828,0.663559970450573,0.692625355574674,0.574144070338284,0.810872261921127,0
0.702268280310756,0.806739188214768,0.661478631766664,0.71607046588063,0.761595405816875,0.371136411193803,0.458346218325746,0.660879340062173,0.736445061565478,0.699900529926827,0.819777615228326,0
0.679286607963587,0.812408116699341,0.641299481209037,0.741982178327272,0.751931287667345,0.460269137242619,0.131968175102864,0.758019942913424,0.754333203806403,0.742509678429344,0.821485401658892,0
0.716995636153803,0.801142820446304,0.714870780025243,0.728253229721398,0.766764219419983,0.69031255931697,0.571876654305714,0.717859853327446,0.759786251808434,0.743745999507572,0.816809197632188,0
0.685242346814483,0.824133182753305,0.656052249492053,0.722051809304849,0.503230549969558,0.713200344718648,0.621940557451485,0.745722591374566,0.758162245911692,0.812387090294774,0.817756957667894,0
0.69251134364219,0.839370412351506,0.677646332222754,0.740929987315258,0.605746329786311,0.673598814314385,0.607355724317509,0.681669299880587,0.757895487283008,0.715259953996207,0.757696297024731,0
0.644667346224186,0.82510924450818,0.700626767189217,0.742821040988387,0.136038026850664,0.71286677799448,0.510791087307319,0.591169735921037,0.755708301706122,0.82529082861511,0.798051321071174,0.0748146197907921
0.690757445730179,0.8355911577489,0.683961671859477,0.728311112304905,0.618086446593499,0.714738861557394,0.602635238300522,0.706208567684637,0.764357336342651,0.740131233734028,0.807237497363366,0
0.726481414854514,0.829651187648689,0.711030380719447,0.745890212578019,0.152755871862854,0.534152135023107,0.694570900038113,0.686450507061134,0.762766958870739,0.77190642336455,0.814325292105405,0.0486458447626206
0.697297903686171,0.809254162190947,0.728234656314276,0.750374661850488,0.647379879802511,0.745977152476786,0.600080769291164,0.719813609162192,0.772362241030658,0.780211389171076,0.806324716373141,0
0.718046860512532,0.839113094968306,0.668554873279924,0.736528765189031,0.632774971251426,0.453779952357711,0.632783721544332,0.708522169313077,0.767564859968974,0.728629471697779,0.800609738097379,0
0.621742361888066,0.842088018458019,0.65900199643971,0.742190425373973,0.151009135617035,0.710342798331086,0.708054852809738,0.671860662237175,0.75296235863795,0.76204465741723,0.754461448077333,0
0.644357323896288,0.564420699521433,0.669332163306827,0.735937603098488,0.12568590369107,0.76392972190001,0.743147625757483,0.68904554741312,0.764770488327044,0.734096838601785,0.818311498831735,0
0.746462071341914,0.58107639320672,0.137186309673056,0.749081769663339,0.150289570767097,0.540136190686055,0.741004644328933,0.673034804765379,0.758685295048645,0.71281352266572,0.778636610631225,0
0.743933851333283,0.620515764420156,0.731497627890004,0.49061461129605,0.17507122208159,0.649188075324714,0.740469271300145,0.722245956559596,0.765401988985811,0.77737450959467,0.697849782175824,0
0.699883036039256,0.755255405223032,0.718301562060152,0.704516741607012,0.43142277291651,0.74379828614005,0.759913958436147,0.732750106730939,0.771140334857489,0.80187618409459,0.666112868824287,0
0.738692951718545,0.729264630107182,0.65706192287671,0.776829231185836,0.714215475188582,0.669407847761351,0.758879940588111,0.644476405864256,0.761988383982379,0.832963808538615,0.779195091305052,0
0.737438982773559,0.756264210664807,0.616015958014603,0.518585194715911,0.761010491050305,0.608150441004337,0.752203828179107,0.724051317835196,0.765720041005584,0.824779782179322,0.812755621869905,0
0.72759630558453,0.75445844788036,0.557579752230475,0.690098469252713,0.747427624196705,0.690588605263834,0.755361267089086,0.708004423886003,0.769314272080373,0.756237593079812,0.723080356156311,0
0.706094505421592,0.768534273854012,0.717193666773569,0.44526530000037,0.17392317210481,0.717983655428876,0.745852789420882,0.719188743267572,0.765408056743312,0.797573785155219,0.741532092083491,0
0.650262673675383,0.762403192534579,0.594738915464609,0.702266803695634,0.432327331492165,0.753612798855425,0.746230288160587,0.61178288905538,0.762982991176783,0.827183717845967,0.789105002572258,0
0.736652565460863,0.766591327317165,0.559100602696378,0.687127916258901,0.437601731159682,0.74310915941645,0.731778721569021,0.497167767058717,0.774577632915392,0.832848925061798,0.796263897712408,0
0.665577144414787,0.779988046338214,0.485656678140833,0.6150744053896,0.171075745538968,0.752786170854217,0.725048602658987,0.705221887374761,0.775338647760567,0.828969119730229,0.784641099159445,0
0.609543916647148,0.798265713569503,0.692783957955023,0.688340711240899,0.169591421657621,0.753967417056303,0.717999573749967,0.712639753350037,0.771696752393215,0.8207663241592,0.779233817840831,0.0469564943399322
0.756895635941895,0.809451603012255,0.631692340039468,0.63667394097306,0.160354875747454,0.701978579502755,0.689652103471539,0.750031499448523,0.769120006831886,0.815794448862311,0.786281824327505,0.0831043262223815
0.660401902463101,0.780673398206979,0.727637649061572,0.716959121081799,0.604766164842967,0.716440259405268,0.62210201257322,0.766227776988442,0.776201166616642,0.79473632785931,0.805447509315551,0
0.697186818198756,0.778985256923904,0.718372486066039,0.708873591376258,0.773588323271101,0.748340466705267,0.725021176007757,0.748559495015956,0.764494406209778,0.809779123125429,0.722324171672797,0
0.739565892401343,0.53774067473387,0.72894953351485,0.702370738429996,0.44134362709858,0.773145439736928,0.741554805389091,0.671069716657996,0.676823004470775,0.772739976522868,0.77131346589855,0
0.13512830550446,0.698999021170546,0.732363987519621,0.452211270915848,0.1398269558101,0.65864114544989,0.751710024412618,0.7259214285773,0.759320600704269,0.802869874196682,0.819239652723055,0
0.652559561717177,0.749014772389242,0.742325408791866,0.658021097812844,0.157044264828729,0.760787171707872,0.75527669458776,0.743864372050576,0.758801452587719,0.811557008057746,0.8169667991883,0
0.158237013413028,0.635571263986605,0.745065490163667,0.706498137189398,0.162451837062143,0.768693069902173,0.747606491449151,0.708489298197253,0.749988562206489,0.820565055891969,0.777330307318539,0
0.668713892360614,0.734207508578145,0.691381802796306,0.716014670334347,0.125738913984661,0.579481885847971,0.742534347556296,0.744644003623681,0.763483819142657,0.827769572675051,0.755189501901796,0
0.712278442144867,0.771282059085051,0.159052760966671,0.721326037127494,0.714315499545693,0.738876942349701,0.727870153891913,0.74483036790879,0.758069501369315,0.812397217185308,0.752773189703689,0
0.717699296950617,0.748805525467609,0.744200407260125,0.712685754108576,0.616968731288992,0.756586997212063,0.747869106832157,0.719282298073271,0.766431639090643,0.817766966256802,0.820547968375695,0
0.570529261497782,0.739734060153896,0.753062394021223,0.694094889012713,0.599494316250543,0.741076900692256,0.716775060354321,0.732507618520781,0.76424746702869,0.81384005659446,0.792981669337737,0.029340687087397
0.716787013167862,0.756957706381436,0.746578720632547,0.715926120376843,0.169219096247106,0.737045844303226,0.732073973098489,0.751400334414634,0.745746761801282,0.820154933071796,0.794576920400811,0
0.717841965897398,0.786009591470684,0.727717587626862,0.690148798386733,0.685373985497095,0.743516137207274,0.721603750243624,0.670707289336685,0.7631274920238,0.853844889265555,0.79177237222576,0
0.51078945327666,0.757445233226321,0.740876040518856,0.653440149342378,0.165820917248708,0.74956331978634,0.739673291796294,0.645309388469263,0.748875073328585,0.833538259074593,0.79080118243342,0
0.542999689288751,0.742720572637226,0.731689467695131,0.690106099302651,0.132649102466766,0.664342351571451,0.734786318680305,0.671505861449926,0.754704180114207,0.7493290284311,0.751224850271953,0
0.587113231083645,0.753358464109809,0.677795982077187,0.745679025736018,0.463667327908327,0.726771252157524,0.743969711133612,0.692858616987938,0.765958006818584,0.794275042941762,0.766443022367353,0
0.572406289922772,0.749373510565053,0.44789506171289,0.745187796125428,0.160602743884156,0.733123072770867,0.743028090669139,0.69422232114476,0.770592641552263,0.806996613408116,0.763035346882798,0
0.279931840444028,0.771352822398232,0.616237849096333,0.752703864461635,0.155087446129265,0.744746093901466,0.743033630690661,0.714681638383183,0.779510235569438,0.811250288379672,0.710911780414792,0
0.637050222602445,0.796287417827714,0.722703585787328,0.748759480998559,0.149426397456827,0.750069710038955,0.73845604947512,0.685950715018531,0.760638957179678,0.821665326386176,0.67445157058445,0
0.130846185828829,0.672859605275687,0.747337139031906,0.720295756480064,0.510866238790295,0.732289751436282,0.736826384042266,0.660602047800083,0.767491424431765,0.813032097892741,0.720423658454304,0
0.578744786778024,0.662282001615113,0.737265576064408,0.731812866732943,0.557725690374826,0.732436237357082,0.736701840814863,0.687727877023404,0.770069273308212,0.7933823351757,0.733696001665053,0.142036441354698
0.742239901798318,0.75474893847982,0.749665532148347,0.749390586706178,0.162978147924591,0.73475970792946,0.73901672032641,0.683844801297619,0.768818574587301,0.792870831434837,0.745515353742313,0.38411068956079
0.652257850550155,0.791888794033459,0.734473502257641,0.746470395299945,0.167311718921045,0.729397218041657,0.742961693955634,0.523309393512885,0.766572200094055,0.797461347503896,0.753723270175794,0.0892978445560796
0.731250094512571,0.777700558976869,0.756982808196215,0.697540049508462,0.137352682685717,0.745718159582901,0.726385793242668,0.447064540372116,0.770655413716476,0.831152844998891,0.748935244701336,0
0.711425354546739,0.761996322868904,0.746453163781512,0.740518014312233,0.645348194120984,0.745977207343659,0.730625702710791,0.662689509184801,0.7551838695214,0.830460221156685,0.796445123393316,0
0.681876354301792,0.770298080034812,0.746621727172107,0.746423058277755,0.160658686263445,0.751717076132711,0.736692787848569,0.155621963735779,0.742814981981596,0.833444069580676,0.786318032483621,0.0598946943701763
0.717792348422275,0.771267270785311,0.742075756911007,0.738061442534733,0.140768206867108,0.151734995564858,0.725129027684506,0.696839693177196,0.76691130020966,0.841801534005583,0.741583283294573,0
0.738265013887852,0.764167969546868,0.741772833119912,0.734635477790396,0.403146986821296,0.569224456257146,0.735302091284764,0.706669655875752,0.754629553777136,0.847189508023095,0.730363665803599,0
0.739721584017417,0.76391805249494,0.747641191464561,0.734449060387581,0.112723947214207,0.562506678802664,0.731066459338566,0.712243508863209,0.761849820042134,0.830250063915407,0.676850372425285,0
0.692545004144506,0.76926451924173,0.754964558267637,0.694682199866643,0.133736025307792,0.478653155563215,0.728459019134529,0.682682172942529,0.756456852360087,0.816710530637734,0.591407864653114,0
0.748308647533508,0.764247514260681,0.732244119228591,0.762939740618466,0.156726302149463,0.105080278947028,0.746337182817147,0.644031802433124,0.761701477491626,0.846854376051815,0.572562681008136,0
0.729173849281381,0.773922678629871,0.689214319758285,0.757120227510268,0.0920103246331915,0.0951961210594205,0.743913115410849,0.665963028154892,0.766044279361736,0.846455625952113,0.719992806836323,0
0.47811320369372,0.774792578335797,0.772007724293708,0.769192754499572,0.0974287497366756,0.665562719414982,0.743066687305588,0.391906923270463,0.765313605209212,0.856107243049528,0.720614719780147,0
0.724492407614907,0.790140806740712,0.775316768155976,0.763097223877595,0.135587787644056,0.13207720921316,0.749088193068998,0.61757888350185,0.797445351737976,0.837114219535892,0.576907056673451,0
0.731641527482801,0.801616767161007,0.705687446886108,0.751956633521565,0.155443673851772,0.113426842830033,0.747356445792626,0.153601535144872,0.808790459033174,0.852980440198494,0.774795690368392,0
0.725708704474316,0.795059545768108,0.782078307191586,0.752789654877364,0.127042809721503,0.468216397632666,0.748165050386348,0.644426190271663,0.761863266358695,0.829314660872034,0.712202448533976,0
0.726972945739245,0.789365062441497,0.785537487897604,0.737542824091748,0.384706242083249,0.718557884063533,0.747886197019344,0.538925816771535,0.805787109809668,0.840921299635147,0.708977317882907,0
0.710079485142918,0.776301967067734,0.782577206103777,0.73638381988185,0.383940053112261,0.518653606643249,0.751353801845943,0.14773900037367,0.769719307615153,0.735549985433806,0.763013566308751,0
0.625773192908702,0.790671062186592,0.75800157242832,0.747048513585828,0.472644851471652,0.721169967258691,0.751254117660659,0.60911183439625,0.826048099905848,0.776953167743342,0.608497901814635,0
0.667781994915245,0.7992823701963,0.764426580953037,0.667042409769129,0.298597644129121,0.157444536681797,0.742700889900144,0.653631173866376,0.755204118750838,0.776854101674393,0.633008948094692,0
0.747183624854696,0.752237746477583,0.773484359801361,0.385922039862658,0.136279017727215,0.486571454494564,0.753948879329352,0.50603886202227,0.781081958042374,0.829485480896096,0.730715563617786,0
0.723121519796217,0.767424505517364,0.798315099105833,0.735796009894497,0.10835681179707,0.663819534568326,0.75507344998768,0.145194994818823,0.802602420365168,0.820151419672683,0.767351147784595,0.0396148478776556
0.744428568351775,0.761488803860949,0.763831032646833,0.716453564384569,0.140537627576963,0.141048470542611,0.745244633210801,0.68060789808142,0.76608339026145,0.818628330678259,0.62961915030662,0
0.729999388395127,0.768164791849173,0.748115924986566,0.752477616406313,0.438119589588845,0.542451149032136,0.754917280323182,0.600399594140561,0.791693000353069,0.835518751185582,0.626225825700271,0
0.757463913037591,0.746104032913399,0.733333316125292,0.753395091273549,0.164210424497964,0.802511652578515,0.760386459919167,0.722894487790588,0.652394735021323,0.83748436177086,0.611322875830156,0.0465093417315279
0.55227717554189,0.763740446073001,0.735670119639962,0.747629077336048,0.15641380736263,0.747816486898057,0.759905293635299,0.67884725738546,0.779000088633086,0.848162012811319,0.746742623215578,0.0375391451729995
0.73409960287848,0.761613019425425,0.637220241753706,0.781419089268064,0.77333959577272,0.7807097630947,0.734932478791534,0.651439712174861,0.759476742477806,0.860450264092296,0.767737149197143,0.152801242841954
0.553535977280133,0.793112232001321,0.636285762657393,0.764252786225558,0.756739409689334,0.789714263852203,0.745228726368303,0.715749965630428,0.763528013281353,0.782754619172965,0.758421956402043,0.414078803519485
0.715396497729849,0.755170891672571,0.629295407419152,0.757321755593587,0.788436064995623,0.779231722260074,0.755186081649756,0.732240898989106,0.777054287553102,0.838026253523303,0.74828480176547,0.734157687684288
0.642004692816755,0.751505565698552,0.138682619008855,0.775953888773083,0.177994438259092,0.826361143109439,0.754646731615632,0.720873402986228,0.758887355507381,0.819708246385222,0.741165514232892,0.728657784237127
0.662719473980828,0.74126363137519,0.686833863871952,0.774510934053423,0.798671615026819,0.791877786553842,0.758387869432645,0.655990287397501,0.761411368185127,0.832277730002632,0.748271071756447,0.710803551486801
0.703880719016134,0.751587262581073,0.153277226175092,0.77350641144481,0.800322080084288,0.755565803362469,0.762656825874208,0.508016537353811,0.750743156976877,0.84237016879542,0.735470613384014,0.693340927944331
0.761530657438141,0.760307503845016,0.575019373153474,0.753834999558401,0.820963048053311,0.803732072391662,0.757330980456007,0.542668676500239,0.783792103089911,0.859397204400118,0.748165017774241,0.659172770641105
0.55463522155296,0.784286332839701,0.708576004019424,0.765077643129102,0.802913991075157,0.813301550216032,0.74600667265191,0.15448582369557,0.747454528606173,0.846598511429782,0.744949511465402,0.665472181447209
0.747701521672695,0.76697198394841,0.720256166748102,0.766473219571544,0.817939382388517,0.811381146711404,0.751293215204033,0.115934030775238,0.769366237136129,0.856314232336046,0.601075185493176,0.665646708751664
0.627210532924369,0.769736053414792,0.697907017886718,0.773614012142432,0.804033029138345,0.77024642560346,0.758073539918602,0.562150072599004,0.775642260047322,0.855795681408139,0.738021097473822,0.433787670224108
0.746464386241569,0.763328316794589,0.69382754432404,0.748094127796421,0.783576247325961,0.46241912685737,0.764052253160573,0.149628690281239,0.771942232051444,0.83928765941204,0.624761275508745,0.734825015408346
0.741461284625289,0.799145644681392,0.719998589368669,0.160754033930098,0.822934617966391,0.793133458934453,0.76522253554681,0.54139503858951,0.782901670128342,0.811365014772397,0.467840083511591,0.733222232258327
0.707327719904852,0.766321774419321,0.739040919882333,0.751367887077285,0.838113936864519,0.821248157627577,0.762636433948354,0.466347852883916,0.76373521467816,0.814755495158523,0.755090393290614,0.7427905365446
0.675054856039609,0.759124343149552,0.732981616988225,0.744605322767523,0.718124409330918,0.797324741514292,0.765637950242164,0.633827061542393,0.772384693555972,0.824824935362352,0.728070885959616,0.724415370412741
0.73036120441818,0.759578440197316,0.744392555719658,0.745587320610382,0.762117280370536,0.800310276902421,0.766968906965676,0.687202070188008,0.804343882230233,0.838407573204081,0.735034933370838,0.742061997694892
0.707493908851819,0.776406888716134,0.74250046520739,0.747630266738009,0.821139016128594,0.789584073253156,0.75874035616694,0.147618343605314,0.745376274044167,0.83681145913136,0.752186876591801,0.738993800758701
0.752748292306342,0.768654843102125,0.48600201971667,0.742995329554618,0.824996676921188,0.788287005301613,0.763268377792558,0.693916116241863,0.768655187716018,0.82493381265163,0.738302760300052,0.306282853376699
0.726757639251884,0.764189842926134,0.761403108687147,0.772840067147197,0.836920794145552,0.692036190091281,0.761337807407856,0.531928536774491,0.771588020636874,0.833967948784284,0.719557141519162,0.553847386454484
0.734490789286919,0.764992834970126,0.759908121266114,0.757293748776468,0.850441565622879,0.657711101533688,0.763611310596244,0.155898736122115,0.777448214266289,0.841779519376194,0.138609536400325,0.153518789609574
0.724268888754511,0.765306634896225,0.763005648598901,0.753270908773287,0.86239627214392,0.581443699101314,0.754629989146547,0.672881246411413,0.770232931673239,0.854083538109178,0.748960419096111,0.509795013765241
0.736361415429467,0.757284889371843,0.761187142463456,0.801336538654787,0.8503661657169,0.70469218166037,0.757648301983484,0.635042657700711,0.77498834248878,0.847047535407493,0.772415829712821,0.224846504558463
0.725989811761578,0.782852935690307,0.709474519818085,0.781379441108685,0.850512007559719,0.515002579918877,0.757479395716819,0.530451719844081,0.7712777399214,0.829776360938625,0.714698611546358,0
0.593113704924454,0.763313813207526,0.716062430513546,0.783749828188121,0.82789735964749,0.144788090128701,0.752644779575498,0.152819987040252,0.765928632658777,0.814347921360743,0.76467496457895,0.0344700074691369
0.75540152865793,0.75860657699329,0.758359783066276,0.800177117088763,0.726555180633737,0.168506401721212,0.757417954852892,0.493405097352512,0.767883882208267,0.849214455952458,0.752521759237724,0.0721252596014686
0.791325825508909,0.766216731021018,0.74543346203337,0.808583771629565,0.80952352276141,0.640592945746361,0.755740811930167,0.679241218228146,0.777786495195814,0.837993798354723,0.748720132984189,0.14280101875822
0.742687975995361,0.760365864064111,0.741937547098991,0.74450303941738,0.809593472198263,0.63728170472518,0.770150661294268,0.16172692003608,0.770553702206437,0.845074657287105,0.759239847087899,0.125274036662979
0.759069714221012,0.778017536283099,0.758807755002205,0.781705423448529,0.790138774766286,0.659112106392481,0.756478796515609,0.151496983912614,0.711538383571082,0.817818032402081,0.148764277741632,0.123617361307315
0.762589207082923,0.769214987632267,0.729945769132789,0.712869485876293,0.795944010769997,0.11937693495461,0.763499654652754,0.144440357615628,0.764356165483556,0.826651335811568,0.740912363194235,0.537382587726216
0.75203851784455,0.749650538377573,0.764006309341487,0.75261844091384,0.80320388817647,0.587425556057995,0.762213471237337,0.584813023220801,0.774948823400214,0.843691048207593,0.648727505262221,0.163795280574893
0.774397517403065,0.75193742953123,0.757726886680003,0.7543258250241,0.765815187081772,0.378131990545101,0.760500730545383,0.600057332081132,0.765249902750605,0.83953364339868,0.68064852051492,0.158232052906163
0.802718555029789,0.758240231755664,0.75399764628604,0.147759251560149,0.753479316805852,0.149452465994618,0.766392192706134,0.680432439341324,0.773920269474766,0.83015320327444,0.757515280509372,0.574337759422082
0.803051270115263,0.735187192128672,0.759980946582887,0.65301178892001,0.790420101183148,0.521457248110592,0.746921312666244,0.727179746335209,0.762244634392541,0.814568430358999,0.803117005800455,0.164582043362599
0.774336561457318,0.652715438332478,0.75652620427661,0.744477500584208,0.811867168763289,0.567707168225736,0.745130384554406,0.720925934691262,0.792833596882688,0.841082537918683,0.773711561801669,0.574000588809044
0.779027435362115,0.602706686461982,0.76269133244302,0.749048546282386,0.770010739820675,0.425488907780543,0.761681281555003,0.71455420219368,0.777338421635253,0.822574925188545,0.738343675539015,0.590720889209857
0.780243208617743,0.755204410576589,0.765423962433012,0.748218814230631,0.831817169590032,0.649595264695717,0.761117151898746,0.667001013591441,0.800996350079484,0.80687493319378,0.77797021642961,0.672893903071651
0.809266351152494,0.744513263452386,0.771645385902342,0.750134848965288,0.836546586087413,0.155659774785842,0.763523067896364,0.700666255171627,0.772397049522892,0.155696802878931,0.810278540474749,0.720940936447802
0.785223044789095,0.754162322284462,0.762853343421088,0.754671595994026,0.772065724721325,0.328257484681773,0.756264604718015,0.726961412557441,0.803635854082507,0.760760521193154,0.794195961846802,0.71504726995803
0.788621337309327,0.116056260262622,0.753379290349459,0.761109394127783,0.826186738643676,0.48970634201604,0.764477934007849,0.713100008315592,0.772516746493402,0.765566218695094,0.819974323824973,0.73292976103085
0.769229406577514,0.660660620184912,0.743850294443745,0.754831824954819,0.804441495357721,0.13086231397869,0.757603965587648,0.142560894753421,0.77154409282271,0.758613338066238,0.786656957077415,0.705487896876567
0.79452168122231,0.721590631173153,0.742013217914388,0.786321111047959,0.791239569453658,0.141457256367309,0.755700833257292,0.68644004599064,0.763853602734256,0.756993912612034,0.110273501449142,0.607258340736556
0.792649876931076,0.78119344705744,0.724638407791345,0.757687897856762,0.790130403296038,0.126768659793714,0.758704140478414,0.653943129515429,0.765774911868007,0.761644483791416,0.760951583486814,0.569472259019231
0.792525293336387,0.748934739694992,0.770170599257777,0.725431797960997,0.73638189105508,0.156228670359304,0.766863584776788,0.557890930934861,0.77256562394165,0.749385581930495,0.16642328393491,0.600031834224699
0.767240540407556,0.778531206349025,0.755515608302044,0.771053526829301,0.811348241495293,0.0688190623779479,0.765154027415802,0.697233553009953,0.765229559263555,0.754402951450443,0.740647682992321,0.58671864003085
0.814504795685664,0.790977601523684,0.736330851087038,0.749255663289753,0.81412768696302,0.111398515809432,0.75615276905272,0.578536036353341,0.761214814229319,0.747882393786028,0.770232850270336,0.566066680709761
0.762036797258528,0.810210379503537,0.749179033369446,0.141730103862279,0.761273588353839,0.123364698365936,0.743938298561971,0.682870642168941,0.766976938520179,0.736049053449634,0.796080986134297,0.501700097425803
0.797691056748164,0.827395582237967,0.752520709292209,0.738431792345401,0.801909778117548,0.106020990769711,0.743932065978486,0.604236706736602,0.467040407676951,0.760144835070342,0.753748598061031,0.435375154901172
0.785551568853668,0.787566877220308,0.743151531859094,0.761537141015276,0.794922368903054,0.0923841588669582,0.75731600488834,0.687515719188585,0.163585683185631,0.749268759306518,0.780342913037483,0.71398436137322
0.796843443080488,0.7160148719789,0.752435762509377,0.744298266004735,0.818247365329546,0.0985600629003903,0.756856712752211,0.60595298655274,0.618511242274464,0.74634967000188,0.812225609317697,0.712901387453068
0.803690892754404,0.7987632666694,0.759302094758329,0.766275396457351,0.809975123721016,0.111818329787006,0.756240670995559,0.711650449867048,0.807000632752455,0.743447066460366,0.810011330172139,0.700030259157833
0.767097770257,0.72605135719265,0.761413779032041,0.561105507619635,0.822657646843211,0.121810067417502,0.766964363211513,0.694178354128366,0.757947206847112,0.756609314556002,0.819953168493106,0.693470783952404
0.763014271513666,0.755834755184964,0.759698918692893,0.765610842275652,0.820937346910907,0.0849089953360745,0.752995716703741,0.68007615441445,0.772645325446527,0.756491690416774,0.169037531010083,0.403692257616766
0.785233511207227,0.753356631629653,0.77012595955562,0.73164605226425,0.817529426638752,0.145648543736687,0.716929916223063,0.710597384045542,0.7967624341882,0.734220766175113,0.807797094847123,0.609068149378709
0.772214453172284,0.804031319283568,0.732842718691424,0.746090793566058,0.812224268342338,0.107078862531172,0.744161105648893,0.55132466711455,0.763347224586617,0.764795321498267,0.805003237748602,0.488929711887119
0.779540498613896,0.786595648779712,0.728485678370904,0.758681168596313,0.808592946638027,0.118475883248403,0.744580816282256,0.501264567752896,0.784310399402235,0.754342979205881,0.765821814039156,0.614200946856888
0.766479038836393,0.752380393831448,0.74771892187058,0.722017245259085,0.823165436455123,0.0876765377306823,0.753275115168866,0.158254266732016,0.770159640606014,0.770736412199705,0.148528345657565,0.653799080332041
0.787547968626473,0.798034129936246,0.764070837011962,0.792952269505576,0.721421050582812,0.105842082409427,0.753177878187515,0.157432823145298,0.771913711857606,0.794251923012772,0.709391647739587,0.739531327448587
0.77925802336075,0.77425844991679,0.759366944299325,0.772603102359275,0.707567605448443,0.102332371255647,0.746629338275804,0.13095744590561,0.854948135681196,0.794709878916145,0.807987539911681,0.717550439002566
0.801171589335207,0.737677722031747,0.765995361056834,0.790225807869429,0.73425866293871,0.0841942302613149,0.760019828086395,0.616933020605781,0.853362408526141,0.790491503529233,0.798245084687952,0.703591790067606
0.793994004075506,0.754972957410005,0.761678907160634,0.783820464441924,0.725455969431127,0.083176205425193,0.764263238216658,0.688241911105544,0.856403450936176,0.796489500769635,0.806714887006745,0.725342779205749
0.786021638370923,0.789329522423398,0.757977172080312,0.779448471504909,0.777840086244049,0.147730336980352,0.752118526979743,0.682405524693611,0.844822828010417,0.818499755930409,0.42267521975167,0.734181037345434
0.778679299904373,0.798829086465206,0.746726370412773,0.747928549209853,0.814425734131143,0.149148232583872,0.754510967801863,0.722439405797048,0.849502826363963,0.802317421242456,0.686434205849384,0.740011078337992
0.804932848539206,0.730349010763792,0.703490767428508,0.131208555103282,0.122294255681856,0.10290808268159,0.765224894543404,0.160356121629666,0.84980867387115,0.760233351283786,0.761971180856468,0.728256063307258
0.734478883701795,0.510866582033912,0.750612633441862,0.736226364083005,0.795925085212405,0.48887143887131,0.756250470745598,0.658937766943913,0.78645140096097,0.766609972473576,0.755295332520535,0.724096547097101
0.793998650157381,0.709486989544505,0.758442357411508,0.387500774796627,0.774487494844259,0.721208243041279,0.749441577782122,0.13993990908233,0.836260182265331,0.773371987759092,0.782330545668828,0.716878925014541
0.757519848737881,0.396388600027803,0.760470746320576,0.611189337254892,0.161301382336598,0.150008237942374,0.74884499662414,0.645117689620118,0.833282216684232,0.792878638228654,0.644764308936862,0.730384701189276
0.809892305435828,0.80564993330295,0.763525761385517,0.737600475017473,0.525667903343517,0.436715226409052,0.736450486213356,0.596011246137518,0.832887145912188,0.780933543106499,0.707755713881764,0.715125216882215
0.789747378921892,0.820561493413302,0.768521632085173,0.757581584821559,0.370837995375405,0.59711219965437,0.750504580245015,0.663737630290932,0.832905808501329,0.701035431344131,0.781929781680846,0.738131336383593
0.804304503411762,0.731887762051821,0.760445108340714,0.690408852352875,0.702506433828812,0.159865768263829,0.744743473581771,0.148126204868244,0.837142497041887,0.718309615480709,0.822733274637113,0.700418859526951
0.821438952027116,0.754382742708117,0.765258261824305,0.742425843349049,0.144412885375547,0.731957114455252,0.760264024760198,0.615905265337574,0.801983666782405,0.769824601153711,0.768213651441428,0.729456025247902
0.800362994837593,0.767032309085295,0.759460158273835,0.744770289855497,0.782219922063672,0.499687495128324,0.758642428609097,0.678808521273746,0.847892641011349,0.785146308272844,0.806980241354916,0.734102674194209
0.79688776697989,0.701886176997439,0.772643495053793,0.756577520338832,0.757337705264705,0.721816594923986,0.754551793563497,0.147024170761863,0.734048488203383,0.749812909138691,0.439893134457317,0.738710267178478
0.795211046896196,0.734656182669647,0.768549817323447,0.728382095197524,0.813976844137095,0.677370405921236,0.763117740573695,0.619692437407652,0.819570723832416,0.776199748838373,0.772351591095559,0.73833361803856
0.804879934842389,0.627402997818511,0.779858248518696,0.749961255782595,0.744347874581137,0.726547285337807,0.76604170466416,0.708704470713337,0.845926661641707,0.691658836735445,0.810044098345676,0.725117567358376
0.812826167699888,0.788107678871973,0.767047694803738,0.752245753864036,0.816215022927086,0.800608448016218,0.760751328231609,0.108215543751772,0.85022962460982,0.767346804800554,0.75576963315436,0.670296706163648
0.799913258572952,0.751731532406419,0.787204552500149,0.614818222482112,0.836561561754901,0.801912072828679,0.758781328414087,0.621564900875393,0.783778915574191,0.815414101399181,0.793489751109592,0.307521403748556
0.785136802634516,0.734741378118488,0.762767885767169,0.579320987888924,0.824887734047282,0.791409960542417,0.767273944380304,0.791098248212073,0.821089548225997,0.7526004634188,0.804244512095425,0.277064240612891
0.803776056322316,0.157052410443375,0.751168665023382,0.740551471906956,0.819980209257093,0.836345291697382,0.757918298644434,0.729395501401705,0.77529071406484,0.764673415791542,0.673739657961763,0.358966161340596
0.818269212100403,0.810369627138355,0.7753327553404,0.689920179524952,0.86207959060622,0.547133056383621,0.761398739232006,0.115560218164325,0.773920444685514,0.725511597852875,0.792742488130059,0.561631149164595
0.804353088576778,0.798451628292393,0.774521054518482,0.71910648752528,0.853685562209971,0.749995506331733,0.753579677470233,0.138812265075124,0.840941975891267,0.755703830469381,0.793657891727105,0.728290334480379
0.796447518917956,0.163108206840174,0.764530508267578,0.722811177693892,0.835786812210902,0.649140778896313,0.684820830970984,0.621095224881239,0.768006471439044,0.788940495455981,0.78954192846835,0.562875520334561
0.804384752908983,0.559962523397714,0.775044932291551,0.752892268472441,0.841192540154185,0.146945900140345,0.760393848559535,0.600559579894356,0.844362183233115,0.810179197400813,0.799749199387904,0.670958479726178
0.809907431840254,0.738065678420764,0.750769996925741,0.730968709114437,0.835418224516019,0.691534047607528,0.750010299190447,0.653471609551661,0.806874236277189,0.726711117820704,0.7609107496087,0.646814556865481
0.797458923577375,0.718744308030481,0.757263404320889,0.745619709368647,0.857593585221124,0.172240872997196,0.754760078666243,0.682996994665362,0.861618485859834,0.790971371998349,0.760279537198473,0.674045127181724
0.77915163188206,0.687123389001819,0.759670855325015,0.663531435945383,0.84529445264712,0.560002640233942,0.761999464726698,0.651549987174982,0.805283413460649,0.82626564300017,0.776722518395377,0.719851244474912
0.812524363608523,0.718184543123772,0.751341365488094,0.732033092825217,0.854765362152449,0.620955696477662,0.755302473539739,0.14325143109699,0.826611852574775,0.820085917783527,0.772210019628292,0.719425428161924
0.807047292462932,0.725885007294205,0.751185232468765,0.598116305569517,0.864046218661103,0.701281205556619,0.752994607636202,0.598867450830836,0.767271359834338,0.819312103550559,0.768906720147903,0.736059284499513
0.807232259118796,0.82260847094172,0.752000578344943,0.726758934228289,0.862064765886598,0.489194146801592,0.760474117845533,0.594205801794654,0.791835424704622,0.842972590512341,0.816312973576398,0.714157815491574
0.783276076538705,0.690734371644407,0.784568953132556,0.743436232852263,0.867708971002412,0.747911278152422,0.755017090256098,0.483334536574731,0.802535539706225,0.841825814278046,0.789621828069285,0.719661446915738
0.787566264996119,0.715835069812909,0.765610414013631,0.745446200101447,0.865936592252267,0.560126737232716,0.753327550218749,0.637005308940028,0.822973327431547,0.78782611844,0.794949808425351,0.711047769508574
0.774383233533065,0.67372925572815,0.770141442050746,0.682852051750451,0.853148814910646,0.714789768362264,0.759700747298524,0.74405741344518,0.819536874744024,0.792326285136932,0.796324279326983,0.695073637197786
0.800058595451756,0.51264630338422,0.696344491619543,0.734836538007184,0.854990170988581,0.762956494430522,0.742236104552995,0.746200924628478,0.801456705723424,0.797548879050725,0.824354977595286,0.675381289595011
0.796356901358654,0.723177193216046,0.756635069914093,0.721999211391463,0.873581504090123,0.513598884672414,0.739523724808502,0.706579024570677,0.83985745294019,0.487089732144879,0.756618125373195,0.695948449542089
0.774662667436876,0.656502139349308,0.761522847981585,0.762738504198386,0.867858285790873,0.711107704508155,0.742956168879271,0.660092101340621,0.771124608481071,0.77975111088002,0.821600758862904,0.696975332404518
0.789164695985411,0.521229082665625,0.756657191789452,0.739433464587488,0.847542172387543,0.719816125865982,0.743099904104007,0.148141603037575,0.836156908203294,0.800220014009838,0.781597133049599,0.67294681296459
0.81394487274749,0.630010462794581,0.759106662358334,0.762019244188329,0.856294471732477,0.606755114625948,0.748040071768375,0.158620115804619,0.7791698942613,0.751466200877006,0.810997017464454,0.711186944153829
0.818538572167713,0.688293601818789,0.762916984066623,0.758100843802088,0.853165492154419,0.662121260448979,0.754047747055396,0.155426674499092,0.772259203953709,0.800409857617014,0.798677644620061,0.702407294277042
0.800167999321916,0.637467945365005,0.756822289268706,0.738555458616327,0.85540941024119,0.80285702794854,0.756025930349241,0.495078908115103,0.815837287836392,0.766842178459149,0.806292553137485,0.696017681092905
0.81200902641211,0.606499744112932,0.760347910803719,0.724713955091324,0.854159967931764,0.822994251627934,0.739563284659646,0.150678430564883,0.836005245641421,0.777785438419048,0.801181281956992,0.707722446425644
0.77783582685063,0.578985261670059,0.756783010631913,0.75972853186887,0.851614966648156,0.841660321554925,0.757877204125647,0.124590698299164,0.846056999400572,0.796140513823781,0.797717689124253,0.686757768216911
0.800289236099272,0.546609418625112,0.756302886828115,0.748028661402101,0.852736621065855,0.768087194373295,0.743843463347134,0.159107415645221,0.816116860104963,0.761556668356361,0.801885013219485,0.657246420177785
0.811842324068271,0.740796483044127,0.732931267294201,0.753714172644064,0.850960360508516,0.156128641612293,0.748125164746783,0.155847521022581,0.798800592292581,0.787744108583308,0.753411264046338,0.583682386488159
0.812838030665067,0.764291720078896,0.748949331476463,0.147769102839476,0.857749585911673,0.162691425665806,0.7536604986305,0.175133319621031,0.605494885350201,0.805301247479503,0.444439991610079,0.691026639451865
0.805261317261791,0.810051975025297,0.754198851393779,0.693304488268228,0.84803624263389,0.56102635923621,0.754466881348341,0.161520878269007,0.368404757804828,0.819103295239432,0.727546667932961,0.676282818220053
0.798828276597474,0.795123761456903,0.764000420147785,0.723254036473889,0.86046484315663,0.612716855221696,0.764758971855857,0.134705065258397,0.381642000499548,0.779051924808024,0.776261796499398,0.671381067343916
0.785642849383454,0.810409592901945,0.756928031611898,0.761408882046887,0.849193999625606,0.814713187882146,0.744580322661532,0.132470197844779,0.811368183666312,0.813406293174294,0.790977111041093,0.644343366181405
0.801499017067991,0.803314940389781,0.76846279989885,0.758151116199512,0.852972725224614,0.825535475366825,0.755562456843491,0.505459895253136,0.859348275796636,0.800709162269122,0.768654257898686,0.640752583807377
0.795743544735699,0.828660159208375,0.770904736520854,0.75769473701729,0.848156326429808,0.841254737222987,0.753416036466077,0.0908058323732249,0.864909844931439,0.803710478547523,0.728526493694197,0.67378985125087
0.802644605655614,0.823907786743787,0.775381627810404,0.753577242218583,0.854133938646294,0.823037509990651,0.728785032938743,0.138391518581514,0.859630890097747,0.727019035617296,0.760252259302222,0.658443188713951
0.801247200260998,0.837651345995714,0.77679673247396,0.753762918726177,0.862162059069633,0.837083744142223,0.760812794587763,0.161452767082602,0.819226220812562,0.763696205962886,0.750595550688107,0.639570909559039
0.799844157904186,0.853301673364324,0.768194530365045,0.763599067888196,0.855894648894286,0.784540177994589,0.744845281114063,0.155384914129283,0.813607824441556,0.784707589738055,0.500978319475005,0.564679231577933
0.803122946779944,0.794870919219929,0.786968924432422,0.76536648851213,0.858022511748474,0.160120519622861,0.740478008029224,0.168367833888646,0.819081539784774,0.807795938678071,0.728345923715765,0.554026239671071
0.81844189820608,0.742238719055837,0.770790522921645,0.763438950966116,0.853645026498523,0.789174913669061,0.736655921205506,0.46984335926281,0.84911081997382,0.79899671503195,0.720921185368795,0.491323401349835
0.820248289659216,0.819685780073305,0.774725340063514,0.76592947219848,0.849090730160416,0.67677958066351,0.749733787181719,0.142568185633112,0.867733385734453,0.643275644581421,0.76450983519359,0.628313895235634
0.814357764416386,0.833003072482371,0.76571934634476,0.761602840328305,0.863601929639007,0.443195612253567,0.753182280723935,0.159148683782587,0.861459964457772,0.802057829140255,0.782646207662476,0.395125991087586
0.815297884884982,0.745647224234476,0.762121556585751,0.768673966712757,0.850544736949985,0.160143050033486,0.731158774761357,0.152344959106742,0.879129601042435,0.761564636646225,0.804581013268143,0.521882808733338
0.81246528879796,0.791742992773471,0.763404978368221,0.770967575333626,0.853240047456575,0.677879069496824,0.733286860378563,0.13651533757078,0.884809489175037,0.807053006006195,0.68466829466249,0.65328468681166
0.826153674889325,0.736054719111162,0.745814394605638,0.759642942542373,0.857804516675586,0.789599130083788,0.673985530980646,0.152818125866297,0.86807035081354,0.796675461584061,0.759300927947557,0.632332176852723
0.779908901857152,0.778361215180932,0.759321919661406,0.764867510440549,0.844384986957145,0.779868240547039,0.746828921906323,0.574697208734884,0.879114690127166,0.76940898093209,0.76112001030855,0.58742658607457
0.815477088557019,0.815234021006416,0.760913552166695,0.7675915761225,0.854664096503694,0.44191857610927,0.765174803844515,0.51486179825661,0.880949660729311,0.777830483343152,0.762613558824292,0.147144301643315
0.787010374747195,0.814083940640653,0.76090464690799,0.759418872850316,0.849160579643849,0.739515045399224,0.765720954422189,0.657205631090588,0.892787676739418,0.781804826204358,0.797598475331035,0.53914759525681
0.787763292479786,0.844666977503267,0.773520099446598,0.763892464825141,0.86678125121703,0.707202704494911,0.764335116050802,0.636764419000564,0.896262484491589,0.783130246161107,0.790504249037224,0.640129736575004
0.799320455633781,0.833377952253823,0.766755822052006,0.759701940928511,0.86336578480947,0.504685525840025,0.763347308651753,0.691904278288278,0.874845380641454,0.742259752785515,0.737229693172193,0.0655260997696738
0.821828050374932,0.75577137526686,0.773413797582916,0.73703051374843,0.849318119275147,0.643915065969963,0.718921893902725,0.660910221096739,0.870394069390616,0.772421917460187,0.783644063804815,0.0393801522049974
0.80429257628696,0.735522259883124,0.77117476384818,0.751584479212853,0.867784231873276,0.813842916552981,0.756194804010604,0.669559007279108,0.876294280326966,0.747249158759176,0.804909514215064,0.202519390998669
0.748196263267629,0.744697368851747,0.786956999268747,0.758943444779415,0.864367232790529,0.795233052899119,0.75683397795238,0.656210678867581,0.848569810228064,0.753853741402043,0.755024554080225,0.708174563404389
0.475196806393927,0.7484632243853,0.784378686404229,0.710979883729222,0.852089320038838,0.791392850655641,0.76646950815399,0.707914911139608,0.76739539392115,0.768047034432329,0.765360658091706,0.666380462138311
0.544154053921736,0.748069797340384,0.791053295854067,0.698882783494791,0.867707402166963,0.753731073971736,0.679168208932231,0.706858392351075,0.834828004452147,0.770105984105449,0.671602328766229,0.687919115751804
0.149173593524165,0.742769592133942,0.762060466751063,0.758941007336391,0.861371403030774,0.738609561181898,0.759920380711902,0.638903896381505,0.86550804797388,0.79363699010791,0.760720544481634,0.661450363316377
0.714157242230572,0.758197336382388,0.779945879367126,0.756110575969695,0.862181002071919,0.832832560326779,0.741750915552019,0.732550588114598,0.851104114392884,0.755914625054331,0.770333127655442,0.498652143050121
0.651097230793433,0.755262156546845,0.753851494748449,0.776902540370048,0.864657948647457,0.746531393832101,0.748260687128333,0.688745477834325,0.810700316587578,0.805851871969176,0.774781035876839,0.685157163236007
0.442835511010549,0.750049991595283,0.767964078365841,0.794593581072995,0.863493094297347,0.819101814122182,0.765008302584057,0.532609023318017,0.825249730647105,0.779592343278153,0.771223702637773,0.690049272462807
0.734401587067629,0.763389592998253,0.771540736043911,0.157063450033585,0.868349882015796,0.648093404359542,0.7503617975817,0.434453051522943,0.82223846708375,0.813140647999047,0.742689746626754,0.43637303811415
0.154775403077508,0.745167493193716,0.762408504053862,0.752675992112325,0.853781853742915,0.728531251487062,0.759632913011432,0.673177922140268,0.84138006736064,0.811556284456561,0.766737706101445,0.719665973972853
0.711700370029897,0.743747126093671,0.762939973930824,0.800062528113996,0.863122802673095,0.716062448515059,0.737933630083274,0.545601147195567,0.841151721312164,0.838907600127791,0.758012854515921,0.719702353654925
0.746128808143763,0.743747500205978,0.763319863598841,0.779241998373809,0.892272794588751,0.706986276058951,0.756468598588111,0.632941293980628,0.864428813126492,0.845044477130089,0.748574178376314,0.722485924395772
0.685671403524479,0.801016430132766,0.764437603669976,0.798549938022301,0.878285496098964,0.695188055746594,0.746825066776581,0.680324845997482,0.881425650000768,0.822563648930411,0.750765007842399,0.692745897511471
0.668355007662657,0.760867216656407,0.755708203428471,0.798168415787332,0.87321991842424,0.729635993576635,0.755117347082709,0.687687548286469,0.879133988096123,0.813613584331893,0.755953376333569,0.670402651432686
0.714667351378124,0.762231026066867,0.755215806184271,0.804000276519275,0.862252444536791,0.551842050361869,0.752901829737985,0.672841436287164,0.878380164191969,0.773397627216468,0.730974254824083,0.10080915992346
0.666059202009209,0.751327907725898,0.771188154898236,0.792100185835762,0.858852293800311,0.793709733844804,0.764886478456674,0.709325233108926,0.873700579117026,0.800584266981302,0.749907358085257,0.623658389608571
0.755410710257351,0.762746186253104,0.790780069125077,0.783460620120152,0.85739340634905,0.746263203120644,0.758541022545232,0.722589187368108,0.873785905480998,0.811357012012171,0.785879749402474,0.711634327326604
0.72465405621673,0.772012443056036,0.777254966720477,0.796796853641249,0.798006237067865,0.607907589745394,0.767431766601521,0.674021040413411,0.863995597328714,0.790979315161465,0.746286109876966,0.692809238260807
0.742912012755642,0.788792504219376,0.779045254485591,0.777831420791884,0.775335347023319,0.754769964113405,0.757793312343759,0.681098062722114,0.852987956644515,0.795201505210634,0.758677260586179,0.677596922325315
0.711013081587433,0.756797007326009,0.785012972339049,0.773220387359473,0.744616429963056,0.680801145155273,0.758715595471649,0.600864207442031,0.834332448876062,0.778650280816163,0.766077720192189,0.700351835113161
0.714986775072437,0.77979936179258,0.772739040339647,0.792948315339068,0.819079446464188,0.61334666807395,0.734527221569679,0.70972660041356,0.717965517748187,0.818031128520858,0.748247744111308,0.732525873509599
0.742985959924566,0.782887373679074,0.770524057572187,0.758907261954562,0.821564389829666,0.664642797947395,0.753340860859597,0.773354489695987,0.855491733976996,0.487997692754403,0.758439498419359,0.692859108945546
0.739471954934599,0.808976007784577,0.777028785315945,0.736305441863528,0.764115743637021,0.498574974895361,0.755983195219278,0.751439556326015,0.840080757135485,0.802567171418134,0.771652368585347,0.667840276655477
0.746676874270301,0.79157021407403,0.783395241820777,0.681635585457903,0.610981989093704,0.643160606350727,0.756980558339681,0.764430277598697,0.808534331087626,0.817058346662849,0.695919716974672,0.645548192032038
0.729391304236112,0.77087216942847,0.793189520190918,0.743167680279195,0.784954725805201,0.759628466019952,0.729793576400596,0.789278909491784,0.870529598615915,0.80186870846812,0.781469639439625,0.698210536156902
0.743597587136148,0.756202181065885,0.769721829437982,0.787518570215844,0.831119894414097,0.610064669335155,0.752840140119348,0.733656301513662,0.866353223700008,0.815809336045074,0.732181106984413,0.701933708711871
0.725264234733115,0.788087360521748,0.7645318385184,0.801321146928525,0.847678497753896,0.705350689723259,0.761352629184497,0.716006256744655,0.866151494910866,0.835179109866198,0.723901795441522,0.711677780643803
0.73139175304753,0.832482219044014,0.787129616962522,0.79820013646686,0.854659620176772,0.744918475664743,0.75923765507257,0.686519824812795,0.873039948553963,0.840137937084101,0.741055136902606,0
0.74787874221602,0.769348295929414,0.769056101803106,0.808943031228529,0.876718105052576,0.711034656735229,0.74975425971862,0.781539348058621,0.855843511322949,0.836797719765606,0.761055734911941,0
0.722316267250922,0.842927377585692,0.768273985542212,0.802332460385011,0.861001281879198,0.680691259209645,0.75677985477795,0.714514041449119,0.822482997670331,0.826515326013097,0.600176960010307,0.0521991065347242
0.735962494168518,0.845291254223476,0.7645864435972,0.813757322167357,0.821104441439493,0.561195596735613,0.767603800118856,0.711727512492971,0.799630829923022,0.825719642897776,0.744194044792337,0.664122674789479
0.753778369900752,0.8221010985452,0.766246322108049,0.712974623430459,0.80024269754712,0.68919707901843,0.767896661645221,0.75877727791675,0.773403111113471,0.811462264712782,0.789969166467424,0.56352586144041
0.709414732857489,0.817616974445562,0.761893122644349,0.836692752917762,0.872942245023414,0.702116719951897,0.759962728640947,0.724830380820017,0.813129455774313,0.830607000406207,0.772758604156091,0.436189052180943
0.149243719123468,0.854818409962104,0.751457001599114,0.826448326419725,0.861299368752775,0.623389488360711,0.761132133395972,0.736032674153507,0.748944446416289,0.846137230787519,0.75777708087372,0.366871320197935
0.705333508828788,0.776748351791938,0.759767523257228,0.834864096058276,0.868285396236925,0.762547386273258,0.757771419237373,0.728900327166523,0.764106036347385,0.793173017376144,0.787053821652543,0.468015338260383
0.7078882459595,0.737229102841674,0.75620262901849,0.829867428549043,0.767454257498547,0.582462899612055,0.763116274451812,0.129887154724834,0.721621853088736,0.798497791645715,0.554083376360397,0.471117273153845
0.72735599705626,0.782854698592085,0.75467802542161,0.832622606640057,0.588412468944435,0.155660730946275,0.750361456679385,0.582149811061896,0.741767808599998,0.816632176147188,0.762530605365957,0.446036171714494
0.733112651335236,0.724576645887724,0.766752740801851,0.832180902197484,0.872563164922695,0.170328396242557,0.754163267209073,0.596866614958875,0.683769052051533,0.848797951602939,0.788971511606003,0.506745296009972
0.664087958971382,0.786493824444989,0.749399268093814,0.840392068127507,0.130203375100692,0.166737965757273,0.760720837688537,0.678409609785241,0.8093773979995,0.826870823420576,0.759170091829932,0.400766724222927
0.673470253495713,0.835304588818727,0.762957038139328,0.841629466461198,0.12742341899888,0.760693207758815,0.759199271793174,0.737086286080199,0.182700848249317,0.837876321665582,0.752521504724691,0.365072276800743
0.652499956688348,0.756813131002658,0.15788821083189,0.843902299737975,0.113435516418999,0.826980369309447,0.75066483477365,0.485487143392595,0.805670441525164,0.819077714742021,0.73756190818154,0.163212387936974
0.551594025844351,0.7897478144997,0.757857334196253,0.841702639247365,0.174998250651969,0.841650299390845,0.754726250750657,0.584685270958104,0.850911735015796,0.769842615724131,0.780260304304555,0.152403012783959
0.343082332820876,0.759822851041398,0.753896156566503,0.838651477180031,0.157591243950863,0.789309316371152,0.739969506147122,0.556771346360839,0.786543088423782,0.799488963137171,0.73733482876744,0.148233623065687
0.653760166474705,0.821222332267233,0.714907765164767,0.786690866674752,0.11089885015644,0.555706639570461,0.731141933070578,0.653412266213877,0.828196321949575,0.807928348924867,0.743982565030299,0.521053378869648
0.412142416659931,0.759748627148799,0.739121995400741,0.746023248202801,0.119896979104484,0.168668700299815,0.733677722035654,0.738754745217311,0.823672190494731,0.807999931653617,0.145078676681615,0.431787070372578
0.691224135622388,0.804459495841848,0.747601966114443,0.768655083682909,0.189773978599415,0.638819695293867,0.754427819907296,0.72270254859749,0.821325185090144,0.783764310159905,0.742034360289445,0.388571204267473
0.681431975481962,0.791068367335985,0.682592372199829,0.737907457817048,0.140862394308478,0.683101618874945,0.738947107563555,0.741035742800228,0.79279707004227,0.74318353918,0.742034097534908,0.163826075019365
0.670601180787149,0.770857970382023,0.752621016217221,0.767068751978816,0.144930651627084,0.127137308836331,0.745222386276971,0.754110445634369,0.604183391060945,0.761163039542378,0.737441132222273,0.472653922677091
0.696333015787808,0.774264189397421,0.763690869959962,0.768246770861816,0.170066228669265,0.148283831655719,0.739031620910968,0.671859222046414,0.100610320683704,0.813095936287568,0.785471532907957,0.475992786904282
0.65447600652315,0.8312901860564,0.762262870316541,0.784078349865035,0.714366909286561,0.830083117823441,0.753289210739916,0.69811063977496,0.138445092297722,0.813004829324052,0.76919351424629,0.52715734024423
0.733961877972162,0.762954892421453,0.766808809891021,0.796276186630269,0.706097984647154,0.818056300142341,0.74288201631117,0.640844958542252,0.151179158836179,0.815747227410501,0.728802778142148,0.663538563255276
0.669623222965891,0.724018345633173,0.762121024842467,0.822806316758676,0.74393861955456,0.783614418721019,0.748748244765907,0.768005062192545,0.118226896393684,0.745748991013984,0.769161282481812,0.664937347576717
0.744588897841886,0.812862016872602,0.762545399710512,0.753197953205565,0.742263938766085,0.729682705203889,0.739051689234992,0.717430311701347,0.140810817083341,0.791106506680998,0.785589779022225,0.665362370865593
0.655789182566425,0.822059590803024,0.768534907107882,0.793125705612062,0.745227740733275,0.730061795892163,0.725061174433056,0.72895158142966,0.159605961780203,0.807360503812298,0.773133260688388,0.663956726453543
0.293779656254707,0.763726037034001,0.771623211873718,0.79985223792726,0.793407238336584,0.754104474358775,0.74424289665724,0.723669177583647,0.165959035673711,0.799323524430242,0.786213608811741,0.637393875878805
0.394167587776919,0.779480736111311,0.757323005147149,0.801302441199939,0.834233249104066,0.752320763165397,0.749141125227419,0.748428581641795,0.179700577874057,0.81984555871389,0.802654221156668,0.687443870938813
0.645656663638407,0.772651948889164,0.762307170787537,0.773417986622811,0.747443911892234,0.768705185264037,0.748090369812316,0.717534781216567,0.155184325996903,0.795197216946603,0.783022922426022,0.658527307650547
0.326628981494864,0.772946715653249,0.775807736854205,0.781842707247224,0.661893156320139,0.68424006704269,0.738425641356044,0.751676663292263,0.116467100429125,0.797294145906679,0.796433013019871,0.622832590207688
0.725410887040966,0.752274253330442,0.698086532060949,0.793317919531129,0.16165462117266,0.702169295140061,0.754973661845141,0.708514940625508,0.156550288093346,0.750506171276507,0.791515830409732,0.586461076453257
0.734653554780735,0.801255179652504,0.766366304408269,0.79235691885767,0.115305185016927,0.703226822480129,0.746825424663785,0.154591576797556,0.155672931152987,0.789825388577309,0.780236451907638,0.644734131770006
0.673486530054434,0.791514839318371,0.75138784106089,0.811575918749246,0.106706054625807,0.799139340516487,0.754237550994369,0.744339349429248,0.143366974953376,0.783108039145583,0.736899072509829,0.682176652670542
0.745761230173653,0.779970167158069,0.739425123198604,0.786328658028994,0.178925876966161,0.846932563424515,0.744559911789292,0.675638878498115,0.153014295195085,0.808762763049926,0.806861642396351,0.67966352480578
0.760464591844173,0.793586779125903,0.765809104493436,0.807198539636519,0.737090643931231,0.749819064752628,0.748054507377092,0.60943685277172,0.165740416760538,0.810940060078598,0.803327093578132,0.672900340259852
0.758770810271084,0.794223165566089,0.766046007973398,0.793200074748624,0.602310245845922,0.727058272482574,0.742525596248005,0.677478266722626,0.56743502401081,0.818204654196776,0.768965502745165,0.68325008394948
0.763140951918692,0.792836915077572,0.767676234571151,0.787347773305077,0.598248526569765,0.738593452341689,0.739037262444691,0.706430133549748,0.617041842347909,0.810415183191282,0.768449635768539,0.624115303765182
0.749115961839663,0.818512173953422,0.7656045610161,0.785655582242033,0.653555844889473,0.74366810124891,0.749855024332355,0.731550515526431,0.155048807561813,0.82393586064052,0.750856119670582,0.683824156645551
0.758406438919337,0.786946163296738,0.760904142161966,0.799470976530539,0.704377377728563,0.653412200063769,0.750103815381047,0.681741344818165,0.504622820557251,0.796825411195623,0.804771916902195,0.361459010941956
0.746468401786418,0.797385532124187,0.766297588569175,0.782184013383612,0.167605963533187,0.799964636031163,0.744989246597171,0.638509717426678,0.161734829471154,0.811733425611129,0.788216295992158,0.651082522083742
0.76034884559817,0.804946500170697,0.754761166070672,0.800976782789035,0.772656963888626,0.750404160361572,0.754147764698796,0.726771519177009,0.144638114397063,0.771707029071455,0.779649848907255,0.698857055696703
0.756307592057188,0.802539403588692,0.769028408353739,0.793544575796876,0.771015321555448,0.74366086655991,0.755329676155304,0.724300427392293,0.149818599381347,0.772426319222825,0.761246025202345,0.609577278496905
0.757882262380521,0.76982634224357,0.754536048864889,0.785775433983907,0.384907390738452,0.814878265572664,0.744840720505728,0.436478646876683,0.572953143746098,0.752395174602889,0.6712659875123,0.715103255385822
0.753667157848613,0.768048619956636,0.751046583528596,0.766428980813699,0.15508957583411,0.714361818363085,0.756487665119123,0.517858195831492,0.159430462449223,0.767594308529245,0.135183360135096,0.711212679756436
0.742289192400388,0.791065760344567,0.772762894348874,0.708943717057709,0.685284178333516,0.792906810071494,0.747442936472266,0.68960235593084,0.169261619746616,0.778460797522959,0.740157593809447,0.710377484382485
0.752029276922581,0.782870502727307,0.756792162675997,0.140575384065384,0.739745576107344,0.799188646878566,0.744650003528036,0.673577322534064,0.593294883022566,0.786851566863595,0.784832743704799,0.725436492367079
0.753802308243287,0.847672064374431,0.766165356003214,0.142599864555676,0.756228844673571,0.841588581833931,0.7590987404068,0.619623804791469,0.113936987261649,0.814426042804031,0.720372532224979,0.700507808693115
0.792351138166852,0.808604247415806,0.765953305612828,0.784079089550828,0.131739492984275,0.778510070492974,0.755087975538437,0.125065335778143,0.153578582379838,0.813297471964171,0.781003049065204,0.724117039703927
0.774437955660844,0.836151110182983,0.776481575306255,0.779031840593461,0.470147839407094,0.778447916586493,0.683735975052116,0.163477082379186,0.166856175398757,0.79070991479092,0.7976518899594,0.725499566419914
0.750556622308926,0.851705810371994,0.758648869881702,0.789535485938059,0.825313972477943,0.613516382748209,0.524264195746298,0.175404237677324,0.161310076227416,0.784265796674787,0.79772392179783,0.718767308547705
0.76070269798651,0.875884654491721,0.716597049784459,0.780085126633332,0.861553511339378,0.79317732786927,0.35004139875369,0.053685910845848,0.173987375638944,0.757211864213903,0.796480775162483,0.74598514180153
0.714908750608828,0.869526102089293,0.753100673720681,0.796734122406069,0.88892996545054,0.814993691138117,0.648720546642273,0.123275464885944,0.487732042673704,0.765081914847522,0.803522628885021,0.712628171013052
0.745574930681601,0.815919253488027,0.766967668749469,0.78980283646037,0.886802516523398,0.494963605217126,0.71959438926157,0.125317995022791,0.140159303655573,0.764392734571878,0.795814602445877,0.664939987005819
0.748440941613112,0.798516561629246,0.773568549630444,0.790421402962678,0.766186293256298,0.784294953986358,0.582864030373848,0.62793908719896,0.154563324490084,0.76994941783812,0.783455474218656,0.705464790557735
0.779045967198696,0.839434560213203,0.673607448254502,0.793307674111514,0.868300650911291,0.657710077704292,0.680225416482451,0.585518229662935,0.118175522213397,0.645389594449544,0.780340632882192,0.715381476833027
0.75688605071874,0.75817792922793,0.751158710576442,0.803446187696061,0.865228313077693,0.853570491957127,0.727331597740064,0.149270072481896,0.158108371393669,0.762761273084155,0.787255805548973,0.722329780215386
0.751237378494947,0.84834536082127,0.75319541709579,0.766407825890461,0.813088298263928,0.837992314719627,0.717402080722621,0.122740753427372,0.169410061333869,0.801224411136222,0.755139297674997,0.731652630082329
0.768822731151348,0.760653968728435,0.757867192503579,0.793318011618077,0.706309187396716,0.807825279983159,0.730136793732672,0.512142254204211,0.60289331700842,0.759045145044985,0.773912452396535,0.72051824059538
0.754257086670201,0.805705724595914,0.751205045389195,0.808120766569214,0.173845187888928,0.853489114936625,0.714832367610468,0.137381062714114,0.143578493596025,0.79934646316086,0.783219785129659,0.729951080812696
0.798252843868686,0.839388082960718,0.773103872448583,0.785457960358383,0.739357909913751,0.74511381310537,0.738159398850867,0.325830311003978,0.136235471274225,0.805999405117894,0.749028606331435,0.728756056490917
0.788675895358034,0.827277378749903,0.762095439704791,0.805736602960325,0.841228383589618,0.831308515738903,0.733170652369463,0.694421744625273,0.164159296438884,0.809300337528689,0.758096140572537,0.714192425095753
0.752471041820541,0.858244546618973,0.753775452513735,0.805709503357363,0.856625914554149,0.655278821771219,0.755178275301867,0.585821225208489,0.153612090621135,0.795610509803667,0.74364235564134,0.729249330016618
0.758184508473786,0.823784949261388,0.772985301828236,0.804808928528704,0.869998499890469,0.770473139647831,0.74873815945087,0.530122089193919,0.386347995065278,0.799146440496855,0.783876151836916,0.718378063131087
0.757607223797402,0.856791423875823,0.763114118118664,0.71602677977701,0.863705103945304,0.699705907352169,0.752221393069535,0.72216510917451,0.173513816365557,0.787628904932932,0.800898281193907,0.711812770221092
0.717527768741275,0.777253072087164,0.631865743539288,0.799508726652925,0.875183130887684,0.804282269426522,0.757126213452843,0.726888618791924,0.607134830223967,0.838767458977327,0.780661419368651,0.634216538880452
0.650649763928483,0.735153457673836,0.735820640997884,0.81856224884941,0.871183290860332,0.762273118133478,0.751513288531076,0.150687553213665,0.145758116814556,0.825999735457132,0.647758491890128,0.684996842919936
0.732683128092182,0.859291926900786,0.757500810472655,0.820584389673686,0.881421240676703,0.725426255867328,0.746997682069864,0.744486465103239,0.155103887296906,0.831832565321841,0.738519138028159,0.622393529235817
0.74754538255672,0.839909157579815,0.718186149800984,0.814794011145223,0.88732743730283,0.78839363479839,0.623169558307618,0.73837257966758,0.511506069442447,0.787272477770695,0.765111689532999,0.647243548790671
0.774148931295337,0.848604621845496,0.731684487686273,0.714654378580532,0.868590549691891,0.644906024451416,0.748359091081497,0.523519860428521,0.143381570993042,0.76745562392684,0.747770343883854,0.702218872493184
0.730091091302992,0.846728691368408,0.739657268112232,0.783041871857477,0.86774159798863,0.799314176370547,0.699243621709129,0.5951015204023,0.126589599909906,0.709532014797297,0.782064573453675,0.692911421003211
0.750128144544028,0.871192801686484,0.760563701773162,0.800118193653777,0.867622563272314,0.736240091146971,0.745674874939545,0.750643499485323,0.405468071123064,0.750275350330874,0.745850518208166,0.669601088283416
0.722201145166179,0.870616542189604,0.743098564876844,0.77251410979785,0.87859065162068,0.819049934512316,0.743887784831786,0.74416566595354,0.126733036329996,0.74863905416459,0.783856441922087,0.673634830238923
0.761721845575319,0.866394369064225,0.760104024575745,0.715329717006924,0.876261468082711,0.782668541882786,0.618701790508697,0.133143208038551,0.0767838329617613,0.792345065592978,0.767984057566837,0.64807062305834
0.690158411945339,0.875725230123872,0.763512746356331,0.782825128087042,0.850968696419053,0.727201681316183,0.641198431565344,0.465261828511406,0.352492342969416,0.810024105837682,0.786763921559757,0.655950229000414
0.758397762693085,0.858185396143189,0.765890361695679,0.809671599798476,0.871312407350903,0.683012499827364,0.459250106470237,0.621048010556831,0.138566779721111,0.789712460938108,0.755720099418433,0.664587557986269
0.758106703646081,0.866877162590977,0.75845464759234,0.764742839551074,0.857575471552142,0.848225014372595,0.715008678077614,0.382541422673627,0.532726195165971,0.778901373407328,0.791245416980386,0.667004668623559
0.768224469381938,0.867349017963976,0.756552007103031,0.792540396229639,0.865744250642013,0.867958307042893,0.734868847555429,0.747602839263435,0.139507067918358,0.799834589751244,0.745600745701646,0.698613009696002
0.759924962036287,0.870355277868783,0.763684036623873,0.779676989086096,0.869147233796279,0.878447962399357,0.728715654840135,0.704725516254193,0.444045431715582,0.79633715563234,0.58105978206325,0.661606349614993
0.765981564665193,0.876997672919176,0.756010774999021,0.804384975485123,0.85748573679096,0.849224681373347,0.750076195118685,0.738079049191984,0.406906927656082,0.767133605879173,0.747335039532723,0.591576973860407
0.798970635364012,0.86825694129787,0.764452333370801,0.777303304471179,0.844279646838713,0.867085659195897,0.751588113587106,0.729167589258072,0.161613712216991,0.778776371286321,0.730111441599027,0.668740901769887
0.832876107481077,0.877606897028741,0.769211730439188,0.774128770452678,0.852409838121149,0.822569486316851,0.740971073114943,0.768830016702856,0.16412143785663,0.786807612197632,0.760488102214279,0.704707307677531
0.805068096579677,0.873913032870537,0.771220984225412,0.793619365055667,0.84775074839759,0.531365593146506,0.750766306990973,0.572363842114976,0.13365062815438,0.773807437180937,0.771807356348928,0.654965893129359
0.808860319056937,0.807603144924724,0.765638153311637,0.798341315242361,0.862597027792883,0.160769776923038,0.746437985870253,0.761599752198853,0.137086594609563,0.784908093239563,0.748784101546512,0.674555940330856
0.800304173112306,0.843511181685733,0.767744242569609,0.133771201531668,0.863401689576453,0.719461568342925,0.742023042020501,0.79189415682137,0.168226683489322,0.792622721917424,0.786191366419388,0.719211331782335
0.687195877765811,0.85581085224268,0.762971845110525,0.771459215757585,0.852487100880909,0.79649272587926,0.745363709228495,0.784626142947885,0.0968793139537368,0.800620036993218,0.726092138671057,0.603549000804502
0.73262058709161,0.749252881593637,0.763226458790014,0.769624078100502,0.84788907833421,0.16981684230291,0.76113449945776,0.803892207080629,0.1415649150975,0.786704135383233,0.145439670133553,0.736299108520424
0.7263711440122,0.845390898059915,0.763685971586653,0.763594477101864,0.851824071708845,0.663883727888289,0.747691070742277,0.811516816253502,0.14295092189033,0.728400929714236,0.740929013370939,0.713375142636488
0.741903493783483,0.8518431080067,0.765500611672763,0.804283521088298,0.856146151641645,0.758149853203623,0.760487767740727,0.813979669430655,0.148440838067793,0.766156111146572,0.737771082000707,0.710960507411865
0.785726971198486,0.859437313019233,0.75892398066799,0.77722275590384,0.863669142067789,0.815036027949603,0.740573743400433,0.798807075585204,0.154436123139043,0.784951867771663,0.746788970366358,0.72338295250106
0.763149647871874,0.864793604922188,0.765757051022981,0.776947855465682,0.428980572472206,0.742150281128789,0.75023357081401,0.800024335631222,0.520095067324036,0.777024881101211,0.754034527034094,0.723322412019775
0.760290379462257,0.796180906957742,0.763015552164284,0.780613068962222,0.869332647800291,0.801926494708886,0.751074558788134,0.820929315802603,0.374462346751336,0.762996480058659,0.71883898725793,0.706443697926394
0.733476573801216,0.785841625702869,0.765702513141194,0.785732498915355,0.861863788319614,0.788272026069813,0.755113638459113,0.737313971497813,0.122741905332852,0.790102433015696,0.78536964150512,0.62297342088495
0.741104215182635,0.849476821948736,0.761209148990395,0.778689098452971,0.867969433211186,0.676694199408687,0.75794360362906,0.731399884825622,0.456043724201946,0.782707928802486,0.783692967743485,0.632446680323476
0.778220929394044,0.83991103570246,0.756808222898089,0.79237029978848,0.872601521458842,0.758029551920196,0.748203067923451,0.734303090691742,0.38051088425679,0.797597103354842,0.784235841861728,0.595525387824164
0.795030048097479,0.862047325940633,0.76314571616387,0.808539720716065,0.875764378482896,0.591846898680445,0.749605161407767,0.448578302962865,0.100161438000547,0.811860821393185,0.791494616305363,0.649273449902172
0.809856646106825,0.880774296920762,0.766662303785063,0.792234864382157,0.871061345026307,0.74914728216643,0.748015905080289,0.582898267424557,0.107457098005391,0.769735783395438,0.778198050283231,0.650468501567237
0.791927284758022,0.886948636553684,0.761526067068852,0.817592549700282,0.880274998709352,0.529858760773477,0.726753971576955,0.700206190649287,0.10354383979465,0.757126083788201,0.788524128490171,0.594602655037119
0.789213864488545,0.870004807581811,0.765857005839239,0.755225929349609,0.875055731171189,0.706441469927477,0.7439894311412,0.696801351694584,0.486222732552442,0.744723625492056,0.75566766284135,0.618174945793957
0.804915314484165,0.750501077317332,0.716304755111358,0.792869807570007,0.879108715183007,0.810133529889644,0.731908955719779,0.728659370868613,0.0747365989902931,0.763742022516523,0.713859412037207,0.584761618619798
0.804417334117471,0.852935210142096,0.761709773496073,0.786278162616733,0.871459714353188,0.751284821775691,0.649697912247849,0.700155423164139,0.132252784347445,0.766981486313901,0.760491884174247,0.693531499295826
0.787238092904773,0.822288500534758,0.765090726551493,0.774191532071148,0.572255462431042,0.785055442199658,0.65419520773261,0.708041440073203,0.0865045803210146,0.776874798732746,0.764246602391226,0.365512529175299
0.770790262721661,0.838318777314039,0.773370538561811,0.796676325701735,0.865302822298585,0.788806577681429,0.733774387682321,0.637829649737806,0.115931541847735,0.742718255275903,0.767155299675698,0.549325537694262
0.780735077995449,0.853592569074662,0.785260951842718,0.777531319906202,0.884790961805391,0.59441854541864,0.734827635270697,0.682418705692589,0.157600620677168,0.742064999658053,0.747561414007675,0.581683005548959
0.791443173912124,0.783208560043161,0.765829585964692,0.808483319780703,0.887069280311086,0.787855160275081,0.753296452455194,0.707079141703224,0.382729910088039,0.748632326272666,0.762510642334923,0.50315532246649
0.805564605595375,0.660187505748497,0.766317531902047,0.768156742165059,0.886321579010269,0.680753515002829,0.727092868629555,0.410788856215836,0.352263761731291,0.136283970072901,0.762043754970128,0.102847086322957
0.802075181963736,0.691919023015053,0.762289059126112,0.768473540383715,0.886340577318809,0.537270994016206,0.726788634335575,0.63469529585508,0.107008921293897,0.739664104866711,0.755080842878389,0.385470696447255
0.766132560081545,0.904410684619001,0.764678725968427,0.7420258923515,0.87737582477462,0.675423455235182,0.729405764445574,0.67959340743429,0.374480894570093,0.793764094322775,0.743989942613664,0.197093859174903
0.74480849367863,0.892218581452913,0.764977577101734,0.754640824070947,0.869674320051842,0.588323223335507,0.740577538628719,0.620980366017541,0.39362284363631,0.798809320652578,0.768484207227044,0.360911638870303
0.717881518807638,0.730284122342508,0.761496380492547,0.770932897061919,0.881045172091324,0.625920362105425,0.750795375322554,0.552897538651722,0.40777473446151,0.802515667104168,0.767249888770782,0
0.803302620682671,0.393334252282914,0.763244485252014,0.793747512958383,0.878504580979121,0.791073216882678,0.72913282901573,0.725359567779643,0.0840896002612712,0.836723344780007,0.751681696497138,0.0458705235931292
0.760637648028657,0.136693778630627,0.765454176537537,0.80008207398943,0.872379292718997,0.647106058262247,0.743987862623581,0.141399401701699,0.211352176062115,0.812672063808601,0.773542668937239,0.543282312028973
0.76584676674692,0.853569588661845,0.763776630892292,0.801753392320621,0.880777186804745,0.830914615744575,0.737217458909925,0.584718979687569,0.075160778917862,0.821830987776068,0.764823684113426,0.696095991223826
0.777688229812518,0.886442987040485,0.761657581845153,0.787326056352582,0.887649023187426,0.854980591280879,0.580579969008524,0.653339771814971,0.0870707667676026,0.824172060162017,0.763532087956485,0.155835880934424
0.748125026360098,0.890186570932588,0.770590312875457,0.796102370183018,0.876954664427737,0.685427350668669,0.753271463876296,0.683858824912281,0.0853525171562125,0.810274253817525,0.741034464837734,0.501695476455849
0.761435165174207,0.88097699480542,0.772658147213533,0.806623477705552,0.883111615405365,0.677299645736573,0.737249548200155,0.682621876685219,0.632202142813976,0.833871458504067,0.760415108619461,0.698553253852737
0.748010896121922,0.886630124749741,0.766014109945602,0.805629443040759,0.880459908375126,0.731654181056703,0.745001791916843,0.685684788045891,0.64661743974951,0.826501067420148,0.789075775006038,0.739713492412588
0.74632996501075,0.88959631001571,0.766485281652841,0.792228894752153,0.887054573263138,0.804286426907546,0.74407946005583,0.707753783185707,0.616991094069131,0.793595680477246,0.809811356853742,0.729844361640331
0.75307374036348,0.897059205659287,0.763924390064128,0.7802696938477,0.889501510120698,0.626341771347543,0.608410313229999,0.707851049346383,0.771046665501536,0.162706316075516,0.805835113388413,0.72478785929569
0.744848525131838,0.891025763917292,0.752364816591575,0.714549603784137,0.842146345246253,0.814701328624587,0.584181032756442,0.715487884369916,0.15229045476416,0.740254047694681,0.789576721285094,0.724311715127
0.748730308879057,0.894531726733326,0.758918479737915,0.805906634492996,0.82619442700991,0.804254385225806,0.633017815903023,0.736188154750234,0.109772741677923,0.769779854906504,0.401336090985481,0.735206920291001
0.769470577634387,0.885823221906826,0.759881815734584,0.771235132555695,0.869697243035966,0.866769145144174,0.640314572810065,0.672523455187119,0.577535375261733,0.753959353963263,0.504710040151523,0.750033974303681
0.749340164362083,0.895589872212467,0.760128852230578,0.758790444032451,0.73559153401007,0.876481403551722,0.643270067054893,0.710388496380051,0.555135807324463,0.760256172949792,0.562611546878239,0.736419268704399
0.7666551843292,0.879508381612593,0.761797315077269,0.783204327745837,0.871908385653798,0.873142279048751,0.720868466119251,0.6720247813194,0.360018914525157,0.799777310993179,0.729723219156947,0.726809323093247
0.762526480196078,0.88245409538532,0.766491478018445,0.802991857365896,0.873753453298335,0.881194397501833,0.600719562553507,0.665016046695605,0.421646546012844,0.807943410852225,0.754258190181829,0.753342948757674
0.785450735541277,0.884448149275291,0.765735901797585,0.79524349994686,0.864043548987021,0.737097987070982,0.625193171111353,0.638849607708064,0.153887143172004,0.803534026867451,0.763934681123287,0.72590332641128
0.758234125918245,0.873163266132717,0.764020215368122,0.777170517878433,0.877121718116077,0.775279825661483,0.717641414080011,0.38857922926046,0.654566397343663,0.815586189740359,0.743365412479861,0.756286647176572
0.760740089109417,0.887547573556646,0.760730791307497,0.800442991367553,0.883463265316903,0.713491158543784,0.733954168540236,0.664448038489357,0.328470352743499,0.774068810044543,0.764784281410118,0.160688555503269
0.774378885931721,0.883049835328592,0.751082665890917,0.77330259600743,0.877582769825368,0.666379264243637,0.723636755463815,0.689025142240042,0.423545552955623,0.794834397848053,0.70552427919404,0.616912643214518
0.741543084567644,0.882067894860048,0.76210895090793,0.779705605565827,0.852180266717974,0.684245506329288,0.746842500622236,0.718440672892813,0.693629884615369,0.80257162905741,0.758648408681002,0.630848563713672
0.682081629165121,0.886233716496476,0.756858220324512,0.761673778639385,0.881782904731229,0.735839189763542,0.739880533231876,0.709401252188081,0.740201205095546,0.777736781129398,0.757815268626081,0.594224075118874
0.743145440557812,0.876703526191546,0.760364021065073,0.789369246640377,0.862678083945387,0.802377199789803,0.722668428747617,0.701151034727907,0.617513322222239,0.784827620714317,0.713071825415945,0.681323134903218
0.738333715290423,0.874474318968387,0.764817798920886,0.783986632694065,0.839869587761309,0.744692332135821,0.735207323132936,0.722327318256435,0.747176590068339,0.804343001175196,0.747500984121856,0.653800753263484
0.727401219782958,0.892255047580808,0.758893747646928,0.787972356173119,0.879450730733612,0.740534588595472,0.733478987891645,0.735188983547494,0.176889200198691,0.828422195607173,0.759204062407668,0.712148187996109
0.750927276860887,0.875870878229966,0.763453737487171,0.772118994888251,0.855245969194386,0.752739366365723,0.705149178065069,0.72123490485324,0.700890747584129,0.827099924246617,0.666409677284734,0.725538410987237
0.761795639276881,0.884933603891537,0.596372473469812,0.79294858782031,0.848641842925249,0.793234559130883,0.73372461525437,0.716562202212798,0.514896935956732,0.830934643893791,0.748299678701099,0.69942113368834
0.759630726341259,0.872664447026786,0.74534369439761,0.781212646855617,0.850812854719465,0.690756614202105,0.700180804794989,0.523376992708817,0.491769129779822,0.828014124212871,0.762145468695611,0.685685769940839
0.79507592793438,0.868764969588656,0.749400344277164,0.724442061758335,0.854999440703994,0.725574614662384,0.739599471311089,0.699970884917127,0.596507646314099,0.826202949054693,0.732564764837159,0.673257900160456
0.751628653168457,0.877041811386323,0.760360505715218,0.779879959453255,0.841137808403186,0.722131148124622,0.749975850462293,0.575798487691195,0.624399964340141,0.455083965166097,0.763209572279506,0.699596568870855
0.76009338200665,0.879093262387082,0.756319225543494,0.794650623118219,0.866090184042583,0.758857758966294,0.746955252226938,0.689446989838456,0.461330127993769,0.766153513412047,0.740057183991413,0.709810353132383
0.727133274176594,0.882161417379911,0.754733550874018,0.805268316377148,0.842887516655395,0.791986483847773,0.746887142183443,0.705606219030269,0.798383492798067,0.774493072607325,0.756285308664495,0.703469706193001
0.73699001333688,0.882604495436686,0.757172064212724,0.806632326028786,0.861053633781669,0.758390380968596,0.745753514638471,0.711268243396013,0.561510080619464,0.773917762978344,0.753020625498612,0.678988595767444
0.748495421546612,0.874528272575767,0.709580025517214,0.11943650614916,0.840507568902133,0.722900748563916,0.735201983727646,0.741410218059678,0.16580664007848,0.768843038072593,0.74451547097029,0.567965069436152
0.763490920765844,0.884325898622039,0.743128876033766,0.686957896522913,0.865539927736566,0.660932440844536,0.696085852970684,0.688762512664919,0.564335524420848,0.635050106161267,0.733304869713095,0.721511398706391
0.778617124865621,0.884100258377774,0.757031652018824,0.707662665132582,0.851367988105975,0.824118532672006,0.729357083974175,0.753522857903154,0.168801579077711,0.821495153322723,0.754511436984175,0.724121439386473
0.768361593509077,0.883479029067785,0.745362784053679,0.810412594902093,0.752133920755044,0.761531242250114,0.741531437666609,0.754542600478051,0.63501416257376,0.814713983150325,0.761723186516114,0.721876495576285
0.739878194321326,0.882203433063539,0.754820850320756,0.819580025942311,0.850421479059025,0.752663696725307,0.731587916033853,0.701732820807867,0.68295940534497,0.734529863495925,0.732808003794286,0.722391988329791
0.75983214714503,0.877914510814963,0.752358381894283,0.830957234489581,0.852390156711104,0.624959750237816,0.751950324563815,0.735895479572417,0.65740945065206,0.761223397650279,0.728917831080856,0.719360228547545
0.720313992889856,0.880112670940076,0.769340660122936,0.828399190535918,0.835281828588136,0.768560816665826,0.740372254729594,0.682383295238645,0.466885727515388,0.83402450670883,0.719204632989187,0.714227540530298
0.762230755296381,0.88355272038891,0.764598180557092,0.684323792701117,0.856141971461658,0.753352667837217,0.747214361026301,0.690793012463376,0.588812038244592,0.832393880169921,0.752328193145722,0.707411913201872
0.755679981742392,0.887998169880939,0.764234574013551,0.786323326730487,0.841633094680997,0.806044880041467,0.744440890465822,0.665990676263607,0.754150536008316,0.839489777179853,0.764081293393527,0.711073174455884
0.752901556334618,0.875519350533649,0.769360470387945,0.766651758401952,0.847798677598725,0.752744558924005,0.733674200670693,0.702877190210353,0.735050467931266,0.838683375516764,0.746723950157382,0.652819537239668
0.719526606584373,0.88033114633854,0.756033202318296,0.789377634937039,0.864996594382611,0.740452688721202,0.73371246185245,0.162499990081787,0.603238418549362,0.829716365097963,0.749955223722772,0.606388120896565
0.656836629555819,0.888418643653693,0.763822858960159,0.731937815954188,0.856249597160978,0.757652427136956,0.648496799183345,0.714481414088639,0.67481933275352,0.829503367071338,0.763067487772908,0.691382627876754
0.708647358271354,0.883844448516485,0.759418070395073,0.779375249447959,0.851565301177032,0.784374311806375,0.695664392838313,0.666676238420419,0.678769380096491,0.835486290409326,0.754803588404412,0.57283388426981
0.614548040968928,0.872311193322864,0.766240425640314,0.816791996064344,0.861820698423397,0.744712069894363,0.670368039999611,0.697695919664155,0.598246494640863,0.837538334637787,0.753251434822908,0.500494659043478
0.662886951179897,0.874207765291837,0.759591316059934,0.786831453050703,0.86575884451907,0.777124108095835,0.610751937333944,0.776321084463018,0.693787013145767,0.830774554972826,0.75803091742734,0.658792638695478
0.731185525027572,0.878632685257692,0.764376366066452,0.817012161685669,0.863377276689752,0.740253510452501,0.593461224564948,0.609811924228746,0.795695073069073,0.820292317474608,0.739795030670166,0.610331151453383
0.763530780764131,0.888312212253583,0.760471537200506,0.819412431049054,0.866987680177254,0.745839253804141,0.482934724497012,0.154829525075504,0.691628651767333,0.848550856301205,0.756003244368292,0.462096208609697
0.759962242200511,0.883793695760447,0.763381394444876,0.783661924101909,0.860346552220682,0.785277973238119,0.592704356121777,0.687766083201731,0.707973937270722,0.830033809279111,0.567216091877338,0.724955347362114
0.74844823329749,0.874529717342633,0.761586873048061,0.779333514330834,0.747472061219453,0.791997001181055,0.686291636570816,0.652707483917723,0.758947403222866,0.833067586441175,0.718456870251862,0.675425674373407
0.716410982715091,0.893908691448983,0.762992673418097,0.780146489921654,0.867950570259728,0.810290491594877,0.718273063522634,0.449976555670678,0.742972411221345,0.840261663061885,0.74599786603014,0.59517824213174
0.749281524521136,0.882044476703619,0.763455301906506,0.793131502404356,0.865110056270595,0.800074093385805,0.725719164408555,0.132328474056262,0.607931091515166,0.843453229720848,0.735496375791284,0.623944788690817
0.711357910095298,0.892623674263532,0.767811347215202,0.793168230166849,0.889501643014646,0.770579516219421,0.694361048094359,0.158896474658004,0.483071708849465,0.824906943948512,0.726155321525059,0.618687647166108
0.742782866903389,0.888819460025661,0.769950918089586,0.771721133135957,0.860865201503284,0.779729243995641,0.695456761709885,0.604753835630179,0.766182576723564,0.813062097744295,0.754021767558188,0.645884234904883
0.749147316875043,0.888672059061529,0.760715980406324,0.135644376706928,0.861318230814261,0.728976042852982,0.688850386774233,0.642184832338393,0.528744187346819,0.818358509492189,0.760141534914153,0.607975380140814
0.701364188519262,0.88556094014653,0.764264744408621,0.628536824321995,0.84736527536532,0.74057659347905,0.7064950756383,0.659307262383275,0.734320024705254,0.802465055117717,0.625631482193019,0.64193246418224
0.737524374753733,0.879283099268082,0.7596510881431,0.831213558473561,0.131833490187013,0.755644764063088,0.678114191229648,0.352379496334944,0.56805003597828,0.764964735025355,0.738255354912439,0.728516513320416
0.720264137556523,0.879732136243779,0.765839400885993,0.794641687840941,0.395181487934431,0.716642675755955,0.71563155486199,0.696133716958073,0.773586023490666,0.805789214502451,0.734272756593974,0.679677985465199
0.749565634634936,0.874282489645581,0.755274087572872,0.786349898073562,0.635327220861516,0.750363497537419,0.697783123125589,0.57845325231307,0.757223644567252,0.824144877203615,0.734799145775426,0.681989497271509
0.7640412073014,0.883228410503232,0.752623487670062,0.826304364478401,0.659092289953643,0.752876298432017,0.720039304405584,0.743746867349542,0.751534772404095,0.828451235665655,0.742574429801553,0.671049337707202
0.739179998178438,0.872141345912927,0.764358027308739,0.844317425165364,0.682642150220351,0.737935218785212,0.726280081133271,0.657171518699434,0.747103106621049,0.808538151521693,0.750861714558461,0.636646585991432
0.753281615369161,0.879783240716614,0.747014031725747,0.844948753100349,0.426342875050752,0.766583944060751,0.733792375546332,0.700918733824216,0.755023146930077,0.826250321911697,0.752021359448731,0.670414996460276
0.772682965482253,0.878392055284724,0.749306465669112,0.8395102367153,0.151227591668462,0.803483334946689,0.755634847345821,0.479774211669745,0.75410725889077,0.838262359991321,0.740827581282073,0.688734703025145
0.791916239613818,0.887063075197179,0.762081555949112,0.830995438612179,0.160980676088139,0.796698558773991,0.671018667322793,0.557793330126539,0.77528558894984,0.827152792763674,0.741602475086339,0.666383433348285
0.56774530730108,0.883784834167753,0.764402323344533,0.106785854044462,0.485060968758531,0.712285169780657,0.712399424163837,0.653370650111737,0.776390669063901,0.800861155165158,0.737891251607323,0.655845506718225
0.767777742187072,0.877796824151724,0.76982759586403,0.150618862967799,0.645438918924536,0.778960198035339,0.7114107796383,0.626102390271621,0.615872562300244,0.834135689714907,0.758284537637411,0.693945280890321
0.703502102332072,0.882462757374616,0.754765905153238,0.670091136844612,0.485126550372063,0.741410547133372,0.737982556322019,0.161584061580238,0.805224544982553,0.816161010952684,0.757253568999263,0.694471157929981
0.751052407163868,0.880321889084336,0.756544711516576,0.68416309747013,0.594684939426257,0.745734882931765,0.725735064248527,0.146177951753008,0.712552998619991,0.823902991942189,0.73864143967818,0.695619357564448
0.736115225871121,0.889370220308268,0.757690171063486,0.644154652889674,0.123341767954201,0.755873240287589,0.744741247625707,0.156421028013179,0.746334049910629,0.821294807036569,0.763385301433912,0.673449113029231
0.751431054539263,0.894919345390163,0.761726119344266,0.113780915323989,0.154455096673772,0.74559000475018,0.752257107316451,0.436136851189154,0.724762337697446,0.818798838413928,0.753316906930376,0.645855953547694
0.776910769951709,0.886791376228542,0.758966918803104,0.143627272668806,0.0920073949560619,0.744624545304238,0.750392653124877,0.58527731763237,0.745900096777842,0.820480522885247,0.761514795392319,0.660192968233337
0.755874053015711,0.883369735222207,0.75240437679576,0.660953627649958,0.0789233890988949,0.761106637003983,0.713213508310749,0.473176118325295,0.75454346463296,0.816665390526525,0.752153127002996,0.689275581578526
0.782006618697265,0.878803860692438,0.760731080480081,0.656583321977097,0.140642708117997,0.784307328709349,0.73527422031426,0.70370967130463,0.629062247955468,0.812976411764492,0.761768802544418,0.63852885724852
0.363077992503867,0.884736674459075,0.745543759170524,0.648517209546044,0.0972215372970031,0.764190484909568,0.734375471299883,0.731839452772204,0.740316170327469,0.820997481670757,0.75954081985667,0.690205093949475
0.660339793377084,0.892240655650153,0.75575326960322,0.610810023113349,0.138355081363112,0.735239432944254,0.750771533959974,0.137273880049219,0.665476722559361,0.800547054154756,0.749421374934197,0.678428821499522
0.627923368763042,0.887746394592551,0.761015421359572,0.49525591629833,0.130308989006,0.752969451108965,0.712428461523603,0.725067510109211,0.745014459751754,0.807596752715693,0.757971256645636,0.670665567708147
0.486947886003191,0.888187057454498,0.75342941797721,0.757618968504138,0.158625034214482,0.76249846919971,0.733998679734071,0.716664480234955,0.704403693453451,0.824088870948334,0.755004295861765,0.705013996427522
0.719116639663276,0.880426648118535,0.762452139218714,0.763333552712428,0.374004139000989,0.64920375766502,0.718180671239788,0.726538876189824,0.577659433662658,0.729940401920236,0.750873978045385,0.648321714927235
0.678878605261854,0.890834099388713,0.74946925771417,0.785885032997446,0.108240155580728,0.794454414788587,0.750630158539759,0.740627466012054,0.756448790278243,0.786245817773825,0.758943893225422,0.635318775562614
0.698543989533842,0.893039281924196,0.749542138557253,0.786925969987956,0.172868340866828,0.760578845676321,0.747955187902339,0.743503326209781,0.731349526890919,0.765621398509598,0.762820249938526,0.549291303294285
0.61651853216182,0.885355838770018,0.759326354553411,0.106601954416019,0.158148639170029,0.750368382845734,0.753267518607048,0.680661681872162,0.792896175786123,0.789677927917912,0.755976497818598,0.575646748793059
0.689570854574678,0.880415663149192,0.761489750365897,0.75325970466763,0.562364962629877,0.767137261481374,0.739139760524804,0.627395698473354,0.167934662511457,0.791873836616702,0.754726844107577,0.16253833788905
0.703135400180582,0.893397609574461,0.76323674068278,0.766320557525798,0.167093628774744,0.796756379607688,0.681240247838496,0.744837767235609,0.706539416175752,0.777729792709357,0.757885845350232,0.516454362055931
0.66077902947157,0.881549355047015,0.764422638487252,0.760207592903963,0.179306939988967,0.747646605238408,0.721115713158792,0.160669669762345,0.624665791997221,0.831091260673237,0.680800149503845,0.622435042596924
0.665209065882995,0.872335320621457,0.757492353689668,0.799543057838764,0.172341400450381,0.765632810473691,0.743092279074298,0.674203897212435,0.749928898091197,0.759446467402569,0.691866848753815,0.548067456120287
0.64822442747214,0.887030053486383,0.756925513894597,0.797228686563203,0.146886768955434,0.750616389863136,0.744349908668684,0.669020355040875,0.746915758129918,0.819596605148177,0.737088586197327,0.582455752782948
0.67461970350336,0.886389614853942,0.753715983971876,0.745953521965899,0.156146729276879,0.763705837820539,0.695414714126002,0.446951603854087,0.776837913012282,0.35671965237096,0.745400260068652,0.537073640084348
0.67818033747778,0.88345760485475,0.764093819137813,0.767348508692445,0.150224946045927,0.747968459491731,0.738004474930149,0.159404222446188,0.771067184354126,0.770480429806107,0.752307153135357,0.592707162502009
0.634900718204321,0.890209550316426,0.753744192985674,0.739501024073338,0.641751010171941,0.798272209585446,0.749072416980868,0.667429382798107,0.785631167971629,0.75959961372753,0.76240851889559,0.423735301647315
0.628152978580214,0.893946183078574,0.76276343288872,0.753528518920394,0.181847848348813,0.771795135790748,0.751234199569318,0.384586566880523,0.769086569842555,0.760817378956149,0.767695154834078,0.625755812169905
0.705852534939778,0.890394474602798,0.738325781740904,0.761998398800396,0.182873467999265,0.746386565394686,0.750362261962092,0.628478837029592,0.781771226784133,0.76328441909755,0.771730312612557,0.630670089599931
0.706348066023508,0.892245594234694,0.764524556533739,0.127602013747391,0.769865721656015,0.755569603665657,0.748149753690479,0.159817439605913,0.807271450708472,0.76949681924697,0.760353265658283,0.722206806420309
0.726384113811642,0.903503581939629,0.73949985171789,0.625520391710184,0.625071109603509,0.72081002230882,0.744186657470065,0.091453621958057,0.726413106578218,0.77265862240562,0.757714806718793,0.704054377413049
0.743691360590491,0.88783085219337,0.756844130444575,0.579331392033678,0.145248792048939,0.828713154668496,0.744805831112285,0.119446377006279,0.815620372112173,0.771296836629163,0.730241007397153,0.732776475940151
0.693543744224024,0.894672645107203,0.751421185278263,0.576511552961617,0.112221007746859,0.760953829944717,0.718889853118939,0.524392114849341,0.778125671636904,0.781441308354201,0.742057986614497,0.716681913325934
0.748234389705553,0.89816029978398,0.762283773322775,0.466747097606524,0.656349524078423,0.662396264031573,0.753629824216936,0.69256933764494,0.81202031852807,0.80490944903929,0.754920006807768,0.720270524356925
0.765453419220828,0.883871641152832,0.768915187680984,0.511107131739504,0.643109919562332,0.766054396693038,0.735911797139928,0.604794073815938,0.794150929181419,0.800137469087229,0.748975088425772,0.698278436372698
0.721174440636136,0.879230861259053,0.764420661396583,0.653965286651976,0.833385827392693,0.711617804409068,0.754761009754766,0.757189083211643,0.769992141100663,0.793487210697316,0.755420358492068,0.667916018189916
0.70901304077521,0.893982087493029,0.757865782444359,0.744970834615644,0.840239954694483,0.741875169859879,0.74490557807221,0.720035843329116,0.685778044680664,0.757858837367923,0.756916473132429,0.639433103272337
0.76711906979742,0.889639261242094,0.758364015662953,0.66381639059623,0.855607784808858,0.746552285911518,0.748686350711375,0.606760835630739,0.735426787937611,0.137983421350242,0.765764525164534,0.706716232276377
0.764425880153423,0.89303298333091,0.757293292336719,0.605659987167024,0.851897870690961,0.741063136718214,0.744728316768289,0.15269208306558,0.78909797669934,0.75523682443655,0.752633793513327,0.617403154709618
0.720223541939164,0.889751041886442,0.756332837463545,0.412961495005433,0.860992764517466,0.770771532207787,0.746455771181537,0.722315907892485,0.69636113938717,0.73557108837638,0.764506220405979,0.542952527487952
0.686157963846171,0.88619570973232,0.753858880716963,0.546734704730077,0.823574805316687,0.726977598146173,0.758659867528307,0.558047232214386,0.760039408156377,0.772893258706986,0.770235684314824,0.706924463068533
0.742782785449582,0.880594740415773,0.755739396928466,0.631743136456097,0.742972593293336,0.648697451244818,0.748450679834888,0.585512182076497,0.781478124752437,0.753018599274568,0.761106875353234,0.519502926067452
0.694767817646312,0.886562656822296,0.758125244693885,0.146199687337059,0.693233771319115,0.733485771745557,0.744841336756671,0.151890842179457,0.797943274759578,0.771739688972323,0.710406969997517,0.582428532807815
0.721591655832116,0.884394728886338,0.751843631902643,0.444913734229717,0.466164281480386,0.724942749789407,0.74681542436626,0.157258993015488,0.794868888577543,0.784159396458463,0.765634708129798,0.578893967457651
0.673289543039974,0.891585090409208,0.756011811182987,0.684426208167082,0.69487620787816,0.724770684869693,0.744294551826784,0.160022915841927,0.754778223411024,0.781407363688779,0.777359826317037,0.568496445574739
0.713298911851522,0.882390388214198,0.758846744268576,0.765824255438047,0.596101640087819,0.721173138383847,0.737799106683601,0.162997237959583,0.687012917589944,0.790203780945344,0.767002511020702,0.609866422327018
0.741612404909983,0.883678870531047,0.756772939692916,0.801658090749496,0.157712329652359,0.75909806584246,0.745038269699943,0.163204292912647,0.763290881699463,0.80155344363935,0.757190627140951,0.610113261873197
0.72773776285187,0.885818671850496,0.75995903982481,0.829064377303092,0.788692815556322,0.694119982740075,0.746039461430034,0.601713915088976,0.752462273704766,0.792345894483352,0.739070418212325,0.559999754868028
0.580638410603652,0.882283978022776,0.753598620452833,0.82179999446678,0.462241970442593,0.700374426356212,0.671043212833528,0.158874845201628,0.803342440918901,0.812378707966454,0.762077615749747,0.484297170729402
0.691954487627823,0.882891612108881,0.756987452680585,0.807873918637953,0.575696376752088,0.763430331466077,0.760570071482785,0.521785883834459,0.823150382740208,0.786313801129163,0.758080320265243,0.66896018850526
0.703265242541509,0.888675380731415,0.741545731317667,0.79928009952724,0.688805726274015,0.819007941892599,0.747580683877501,0.493538112453922,0.800182302762468,0.802860498952751,0.759144352120726,0.653765277833375
0.712462839102599,0.884286773054997,0.7473615993249,0.831369282883968,0.655729113708627,0.823012109214624,0.746820519539809,0.162432429647564,0.829668171004878,0.809731717925713,0.79014737061577,0.580077640310336
0.61290912040212,0.881663283616367,0.696769613561861,0.844278882563367,0.730147380293745,0.807218888782188,0.649719364118931,0.156384075536044,0.786946354000529,0.805938683424209,0.75114778264847,0.538767794292915
0.71059932497544,0.876051815179187,0.743947249222874,0.836678434776444,0.754568713223878,0.827241127266049,0.735319774725773,0.580313005235564,0.734078492270802,0.792050596767945,0.581372902024074,0.57664080568836
0.742920661064735,0.886982019568062,0.758868004331774,0.814643575832495,0.60554513608584,0.490690039197697,0.740161078789436,0.116927348414648,0.785857629262821,0.817817887800156,0.745211597289034,0.573707711856556
0.748897327981533,0.883969201619876,0.750544381027788,0.827069352438771,0.508620557548991,0.835537204952853,0.748222021506342,0.747562148956246,0.807234016856963,0.799085695441893,0.693111184953484,0.586887588184495
0.710910717713114,0.888104252966059,0.757797920557017,0.85243312351941,0.683799275241663,0.856179520102892,0.736746927065483,0.15357321246483,0.80128109648704,0.808867294393448,0.741399512947186,0.547691970454521
0.756594302995344,0.892313902199243,0.764911340861235,0.657894723976332,0.628185712705196,0.85395063028679,0.740524059622079,0.131951624076206,0.795120196047046,0.799728520303797,0.738778579746554,0.639649163507993
0.766491462343009,0.889493904338361,0.76242660432552,0.756712487137655,0.718865688586948,0.846114134571228,0.732146764406228,0.150538305989815,0.783551444062281,0.812878327204269,0.740164862212874,0.562266086816485
0.773444263920678,0.891903652392796,0.757035464358488,0.769857959210187,0.56743523964239,0.856960658453073,0.745696689575769,0.567734625100816,0.796134914747382,0.790068629410785,0.744005241983534,0.567621944813985
0.774715446556561,0.889235956567182,0.672247959682268,0.748708548554286,0.412478332060539,0.861530780023043,0.751253618127841,0.547988243956988,0.780540112795781,0.811371605295087,0.74053964548759,0.537594985822194
0.7788834074199,0.881484692029755,0.758107351541157,0.789859674590096,0.106471402990701,0.845795924900119,0.746921912583738,0.732050176356037,0.750822908227101,0.814524304587801,0.7433250808716,0.551452105548981
0.77399581555931,0.887727474120118,0.759669833482794,0.760028346500254,0.155846375209714,0.549244657200732,0.74291188709412,0.545208212560857,0.738755263995394,0.77126377382418,0.762754097166874,0.530728446871214
0.770507965768493,0.885574286190876,0.732063626612582,0.760603134931711,0.389161211975679,0.527631238433613,0.749160406370314,0.731917388645292,0.760591696291239,0.799517587417454,0.748934959473922,0.565241513227751
0.77686293869796,0.876338724543648,0.747919326405624,0.756955336614916,0.146558174388115,0.731686590224616,0.756691731290199,0.618401190521677,0.693466660394226,0.794390100029021,0.763372976023679,0.489214993678694
0.785057986382311,0.877507838794468,0.756282203171677,0.760795312312396,0.451574052299432,0.754450593631757,0.756964391951377,0.745163019818426,0.533921404779175,0.795039609629547,0.755990941542626,0.522594221271232
0.785310056963736,0.890157848846885,0.739449910261935,0.762384719184162,0.129498336702338,0.763082558545567,0.756052378897004,0.789178976484627,0.714314376148062,0.801321955735486,0.752516146967609,0.526094888946491
0.773875542331045,0.885425503961601,0.751130929834802,0.766975126225929,0.166904337541473,0.750422012559866,0.617881202423879,0.795962496584669,0.723204947953061,0.381246891701734,0.747574404310975,0.540767452252907
0.77085910494999,0.894715272579791,0.753363181496762,0.766317600683257,0.153785560115073,0.758276070072089,0.752649129059286,0.724914830527987,0.675348644304433,0.797016499651337,0.754960764353619,0.55413228243853
0.770583594385258,0.878124384371443,0.757054802098743,0.783201065193874,0.533501181828035,0.757460299881442,0.739588449439465,0.78240705062654,0.620960779246494,0.782044838997152,0.745800001353301,0.61632857979247
0.705511489087247,0.878501323152611,0.750506144617766,0.760612966875382,0.15257059380316,0.752424287133601,0.760884274371077,0.358711940509043,0.666748140116824,0.789275796546715,0.742824801453359,0.617536720469034
0.759639640962719,0.885709473021641,0.744300043399381,0.763456938389206,0.147039170060472,0.798276838397455,0.783903069847684,0.722621670510208,0.651591746707653,0.767797503928945,0.73762061412017,0.525555667931193
0.770559507872189,0.875830166292127,0.745490562579544,0.757460504441747,0.154202559479563,0.766171852793636,0.773710753869378,0.727163071268511,0.765279014336297,0.790479287710689,0.75424036616409,0.693972589222935
0.772477640921936,0.887385838240228,0.755032125151956,0.740329366249649,0.157136125290063,0.79778946483207,0.794786634449752,0.716295905885431,0.687176276067825,0.770699031938417,0.76615899821566,0.679318734092606
0.773944729351386,0.882708146087844,0.734866194103536,0.749371578534679,0.140647243950615,0.788841730721467,0.761538220171865,0.680054035989452,0.750729942092002,0.799404895165826,0.749247414738303,0.702041519794719
0.777643694429078,0.883376702310918,0.72771621943912,0.760077276547661,0.142706760231933,0.781361954398519,0.689981882999313,0.701688160048603,0.784301065120444,0.788856695142062,0.772020154607414,0.496072862594853
0.777618826883106,0.888823584834045,0.75164955211248,0.767092902492359,0.45319511279496,0.804879862708023,0.729743205429527,0.639838706749953,0.802038641987464,0.801314722536107,0.734663847846449,0.634679659967042
0.780230564262684,0.882607318480838,0.754722347767924,0.761069522347049,0.149122216806252,0.859267342016899,0.684144463167558,0.673080720265207,0.754335236096937,0.802412450727262,0.755668262286425,0.609231202388328
0.772308520658408,0.88911985597529,0.746108435945649,0.768035112033406,0.453635642882289,0.811506043454578,0.699193642416506,0.581236972274773,0.69749738936793,0.796009557448728,0.788921433590461,0.588684331716578
0.776914870562601,0.893745884477529,0.703651604653286,0.759587965247467,0.104541999168903,0.794168151330851,0.746163853028787,0.16051842591633,0.713852031984477,0.787612528659966,0.740648952655221,0.62591519617767
0.764490946764277,0.891547816864576,0.745890735581713,0.761062249207805,0.118522113514705,0.820104875717493,0.754484241996035,0.157548017274796,0.71353038359553,0.808534630306993,0.716051136645628,0.102134578492672
0.772337232472723,0.887834945086665,0.735447229618606,0.764018955420166,0.132387523879537,0.756744568038149,0.729069925336524,0.790730390071821,0.642106890998444,0.795189952858581,0.765803664358643,0.714859460990503
0.767095452353624,0.893386504990881,0.723471578361301,0.759491121913266,0.484173930007201,0.852986884466672,0.743759554496578,0.747030699110548,0.394261142872215,0.807371782870077,0.740965637032964,0.672105213778101
0.776025996899098,0.89743456677766,0.741555393596391,0.518214657201277,0.372500230938513,0.853823797562279,0.722615851856083,0.577752783636016,0.68306999368724,0.788598770365545,0.748931083210596,0.658424596367428
0.765733637590071,0.890752026958351,0.729477466187255,0.718592166541215,0.117692051650657,0.861517535694302,0.725386601867638,0.806672470167252,0.640286999755693,0.799697725438952,0.755061104252465,0.644634595011643
0.777574732488918,0.882651766584369,0.170880820835389,0.757438707568943,0.315008189881061,0.842483661764351,0.749375648259884,0.164667619224324,0.700254975860236,0.793992599598457,0.753664035548544,0.653839736725132
0.768146185816274,0.889243572470299,0.706843288597964,0.761042741446232,0.535802033324889,0.823108858501654,0.105479420718917,0.175195341939159,0.638865262499832,0.806550269990715,0.771640281071505,0.485889886531812
0.775475184205474,0.894199753103013,0.75492843048846,0.76091489449384,0.68275892656417,0.713404741602865,0.674399841623573,0.654581653638873,0.732400516532572,0.810649746663444,0.759356281668356,0.628654573709265
0.772711977521168,0.894618441531992,0.742735968175856,0.755129456960327,0.703210132398363,0.829757749267394,0.73412795423439,0.452572517606092,0.66697132130459,0.810264221194151,0.765433302735215,0.642910948321006
0.77132270188235,0.89095149238713,0.751898386893844,0.759190771511252,0.487373542663129,0.791278715015791,0.737215463532422,0.765765020640949,0.525045287449234,0.819200956766426,0.757734174103144,0.569461456835234
0.781034568681109,0.8914099358047,0.744607078528284,0.756808819332304,0.68357970672173,0.772798587952231,0.740935587225813,0.601385042452839,0.66629611563231,0.812516690177131,0.773115686346121,0.569704446292212
0.76255156732895,0.884082707153498,0.755506491113193,0.700670070985517,0.435001082679622,0.771793968594796,0.725353630254911,0.708730056412927,0.642482908507502,0.817926908451871,0.783070996515495,0.614023041277037
0.76801032642031,0.881316451764712,0.746240278424296,0.776272263334123,0.423172375710851,0.842704875380333,0.740913544737279,0.447646184951349,0.733341364202167,0.791719041672109,0.76093901514905,0
0.768857867301565,0.886878502406642,0.754439720063378,0.785507131651051,0.411545041399849,0.811608618814764,0.737914542936247,0.778215763915368,0.739162317193035,0.683120541742116,0.759086869466238,0
0.770535985421652,0.883504642041358,0.727090260464109,0.785077077328975,0.504325658491711,0.82722195673522,0.732025400936887,0.767099858101883,0.753235285208172,0.719737723061247,0.758752323113294,0.370416675386801
0.773896596709982,0.891808794084079,0.733158540688042,0.811540519105889,0.489445245936963,0.810718301065392,0.72754850884042,0.835625567768139,0.811088316253126,0.140184002003619,0.769057099123021,0.314093102543162
0.773508109206943,0.880961132355272,0.729329691793019,0.799990501988119,0.135778760421684,0.841134460007963,0.742744266169973,0.852500012047379,0.781249208252891,0.514780868787271,0.751262837322851,0.51757627875542
0.771867195613006,0.881883128930458,0.728579654653504,0.810758483935734,0.536156590957687,0.789249843530993,0.733648472438546,0.850351001001458,0.65257213544591,0.650900041817479,0.755910734652542,0.709663482060351
0.772630621971786,0.888843777761765,0.738981934000912,0.813532238811632,0.354560607686533,0.849480358376643,0.742846236647127,0.857879233139329,0.111666140735466,0.578147194035106,0.776785211808063,0.706653082191038
0.756820166332273,0.889128735876723,0.743318603712586,0.817126351013143,0.387213373408793,0.845315282675479,0.747130600192014,0.85603180416243,0.14671559019959,0.462326235131864,0.751658829530773,0.292837659446187
0.762955746614675,0.892201464683395,0.742630705246506,0.83138122771878,0.141682689614097,0.835350937703175,0.758572697299457,0.870669029606907,0.13877046970251,0.136032859462232,0.787168922499184,0
0.767472713094348,0.884913765738934,0.748390198291676,0.811569518900069,0.140881422715831,0.861206653040624,0.746150687613071,0.85150870662795,0.12981492782333,0.50654880066671,0.801891464824831,0
0.772629158678794,0.887845848510047,0.757560838764513,0.798873203934158,0.682593785254317,0.844743092664089,0.746611499071199,0.860287157890576,0.124099081798227,0.706588233629081,0.763549745273433,0.0597851440936383
0.766083645368552,0.878815455514369,0.743471611942686,0.829318111463059,0.756731159341848,0.153373839494135,0.750806067143054,0.84823719523661,0.114225198011025,0.147764400507175,0.770960222106676,0.215338592037668
0.75800421438397,0.893452730160666,0.728534377285701,0.815364522557095,0.765016275182668,0.766056066135577,0.733730450838678,0.851970463949655,0.163449919370094,0.122599088410882,0.738560613637579,0.271657606454276
0.754951691827679,0.891797633906278,0.747883415866646,0.820878412410899,0.76875158976555,0.80152038596206,0.748077675526457,0.852900561762313,0.346389263032026,0.144978378683482,0.748041510553333,0.0714124790481587
0.767763834001506,0.875439587175583,0.720393154868511,0.824223089854869,0.753075940889394,0.770780757616124,0.720645813064177,0.854202590680097,0.125951333333109,0.15603948894427,0.742267819992755,0.154355499255926
0.755759901506065,0.873827185997635,0.720067123615968,0.691555245460323,0.744234089436799,0.792594072142936,0.713980491229778,0.817768099542329,0.11691827163174,0.499256669455503,0.758205710102853,0.476437235043843
0.758856565580137,0.150174949214111,0.743834954747991,0.761916968011051,0.819166934615238,0.848713934194159,0.746711758138183,0.145165823864303,0.118309796834723,0.729833602853226,0.761447883308392,0.436199807626524
0.752103126815963,0.816813813160782,0.741095748054852,0.760564348061677,0.802260475607521,0.852069751795952,0.749008244494855,0.813251403837287,0.387052984559677,0.659200439962919,0.764093905881147,0.16390830321078
0.760699496755942,0.792659503891479,0.740483108916773,0.743273766317417,0.614321215261647,0.852086647972596,0.743288505694127,0.774690568276466,0.388896428566818,0.492696680515881,0.799018445255395,0.402000532052519
0.754804209376952,0.10631076634767,0.708704711077819,0.755217913662547,0.839133965643908,0.858088914604279,0.743572816493612,0.834491603544514,0.314326315718804,0.125831108964942,0.808448032028885,0.474945633415823
0.754184007815732,0.828569255053261,0.721998026885106,0.754527300890936,0.783698397860385,0.857286201324253,0.742566525108754,0.665519443267817,0.0658679169438479,0.130468812375032,0.786768680922798,0.672368761619763
0.750588604683487,0.811320209466607,0.744353252375589,0.738162959867596,0.776283683794793,0.843479808084016,0.754282104576851,0.711530202449639,0.0731603554686925,0.601837620724306,0.709344232833243,0.65560142599383
0.7595458793828,0.843798374455308,0.681492570181722,0.751379357727363,0.726889274335943,0.853133996219763,0.706202527721101,0.81468564860494,0.132422271218777,0.153277252239307,0.159578791435925,0.62888128661087
0.752761754645151,0.860342567719278,0.726246875405736,0.749817540627272,0.769479607145575,0.815841103538078,0.756222059061196,0.812296267710689,0.110137430986331,0.475328631910007,0.751963484882046,0.727443311705013
0.744819717786178,0.870515308787063,0.74387362683759,0.747269539842104,0.710473337071632,0.603565103762313,0.637010392664942,0.819157858466893,0.141675965893755,0.725125828020027,0.752055667527536,0.637180973710424
0.762068776562,0.864284230650673,0.742531368981088,0.75037738844878,0.702300683979672,0.725108666070064,0.735623045796157,0.780448372427485,0.312734209590524,0.57920419111889,0.772372135109387,0.162574632246443
0.767477743633775,0.87283176820436,0.740183520870123,0.751920987052007,0.766305607861023,0.780547107215372,0.736532359631001,0.75484844885515,0.109267778156725,0.448927882606105,0.152181335203315,0.543754174428918
0.751905515620479,0.866165396025229,0.748735405976756,0.758298584070744,0.161356475526577,0.791115218059399,0.716908584250245,0.813987790076334,0.540981584084919,0.634626222768481,0.748910235467311,0.525889607787438
0.765217319734733,0.860218818812058,0.750797473001667,0.753396144060836,0.751015114693672,0.77010587192409,0.732621046781097,0.827465414690226,0.447144516183923,0.378155452922624,0.75392764884391,0.153147231779191
