potencia_x,potencia_y,potencia_z,potencia_total_xyz
9.59653294170252e-06,0.000324682647073406,0.00046856047850022,0.000802839658515328
6.65975090298772e-05,0.000107194622959093,0.000135951780852693,0.000309743912841663
2.59277707731256e-05,1.33951282446642e-05,2.97469174830311e-05,6.90698165008209e-05
7.81908776945696e-06,6.22690905744305e-06,1.32796922009554e-05,2.73256890278554e-05
3.27921527530827e-06,3.18691325200291e-06,9.37650501153735e-06,1.58426335388485e-05
1.269693934278e-05,9.38193846598036e-06,1.60856289941104e-05,3.81645068028708e-05
1.32968494555814e-05,7.03204213079896e-06,1.55979269766845e-05,3.59268185630648e-05
6.26557283325047e-06,4.21716686894581e-06,1.00360792193839e-05,2.05188189215801e-05
4.65822609174469e-06,3.64484583537336e-06,1.04979947865937e-05,1.88010667137118e-05
4.77668804779343e-06,3.50821733346805e-06,9.76085986236471e-06,1.80457652436262e-05
1.04057948538044e-05,8.60279400000466e-06,1.83892333516769e-05,3.73978222054859e-05
7.78001497031427e-06,4.47873440010592e-06,1.17412487769507e-05,2.39999981473709e-05
9.9114409063496e-06,5.25473614527301e-06,1.15666310092673e-05,2.67328080608899e-05
5.11481149020086e-06,4.32077872200779e-06,1.02593663042448e-05,1.96949565164535e-05
6.79925795401144e-06,5.51701425684201e-06,1.1286871299441e-05,2.36031435102944e-05
1.01549778843436e-05,5.87646174314989e-06,1.31155334699177e-05,2.91469730974112e-05
4.64221495328145e-06,3.21176194286306e-06,8.72232579364822e-06,1.65763026897927e-05
4.96786353710824e-06,3.70806095742523e-06,9.59374715780421e-06,1.82696716523377e-05
3.59092685426029e-06,3.11195716152955e-06,8.51001123985662e-06,1.52128952556465e-05
2.03977649227394e-05,9.57772801141781e-06,1.56688985714974e-05,4.56443915056545e-05
1.36196033671565e-05,6.74774368894431e-06,1.66272292561672e-05,3.69945763122681e-05
2.48993887949754e-05,1.02206443470967e-05,2.20499122220145e-05,5.71699453640866e-05
1.25129865002148e-05,7.83869924676145e-06,1.4807835256671e-05,3.51595210036473e-05
5.14999224592206e-06,3.45951148766305e-06,1.02338597335266e-05,1.88433634671118e-05
4.86364508410955e-06,3.35679014959904e-06,1.07159361886305e-05,1.89363714223391e-05
4.43231890348228e-06,3.28153531584909e-06,1.00909912977662e-05,1.78048455170976e-05
5.46167896340681e-06,3.38724388218807e-06,1.03013835808541e-05,1.91503064264489e-05
4.99502569948311e-06,3.23573370975374e-06,9.48530096348211e-06,1.7716060372719e-05
5.01760595546036e-06,3.46231586156683e-06,9.64632698644633e-06,1.81262488034735e-05
7.8838634480313e-06,7.42303954380835e-06,1.2969710560907e-05,2.82766135527466e-05
3.6333071537536e-05,2.98991266443199e-05,4.36737457189846e-05,0.00010990594390084
8.52473069336405e-06,5.76447518851279e-06,1.1731651370243e-05,2.60208572521198e-05
4.63501614160748e-06,3.75501081817817e-06,9.89985478329771e-06,1.82898817430834e-05
5.19256979659458e-06,4.3233431930844e-06,1.05555223849427e-05,2.00714353746217e-05
4.4804655035341e-06,4.05833044089999e-06,1.01142614340386e-05,1.86530573784727e-05
1.73572908085947e-05,1.04163298037605e-05,1.67765171483499e-05,4.45501377607051e-05
7.54361252141246e-06,6.28426872245869e-06,1.44317535300459e-05,2.8259634773917e-05
7.60046470401652e-06,6.33071844166717e-06,1.39579961980174e-05,2.78891793437011e-05
3.31971940584797e-06,2.96465904869804e-06,8.83267733281397e-06,1.511705578736e-05
3.16851067053048e-06,2.91028184006429e-06,8.72755046687407e-06,1.48063429774688e-05
3.38441825306013e-06,3.10206412381904e-06,8.5804059663227e-06,1.50668883432019e-05
3.4930752724672e-06,3.19834682306588e-06,9.20719582941724e-06,1.58986179249503e-05
3.38265710320552e-06,2.98272191555537e-06,8.7999684279165e-06,1.51653474466774e-05
3.21365690777806e-06,2.87766245118217e-06,9.19452222262905e-06,1.52858415815893e-05
3.23044890903385e-06,2.84990454802344e-06,8.91222841353521e-06,1.49925818705925e-05
3.22296135393704e-05,1.27071206596287e-05,2.17217185025402e-05,6.66584527015393e-05
1.57987190399643e-05,1.06318452444194e-05,1.74069197480969e-05,4.38374840324806e-05
6.27957063896454e-06,3.95468637880736e-06,1.06872706099528e-05,2.09215276277247e-05
1.05083668592378e-05,6.77498455082628e-06,1.36985561459199e-05,3.0981907555984e-05
5.25369388257797e-06,3.83514693383263e-06,1.02509704894334e-05,1.9339811305844e-05
3.58232610579512e-06,2.97564881285302e-06,8.4705726313598e-06,1.50285475500079e-05
1.3084842135564e-05,7.1110461957952e-06,1.02536328048448e-05,3.04495211362041e-05
1.61088289430879e-05,5.96724374489254e-06,1.11537325861776e-05,3.3229805274158e-05
8.26997112513504e-06,3.97731023963729e-06,9.60973454870498e-06,2.18570159134773e-05
1.0631093761256e-05,4.5421644713281e-06,9.73930492214482e-06,2.49125631547289e-05
9.76043064347376e-06,4.33353648116019e-06,1.13340661717944e-05,2.54280332964283e-05
5.61662968620119e-06,3.78744056565748e-06,9.19476898890864e-06,1.85988392407673e-05
6.63782278103355e-06,4.65098478629656e-06,1.09015405194446e-05,2.21903480867747e-05
1.34613336145289e-05,5.64313191821479e-06,1.024602248901e-05,2.93504880217537e-05
4.40977534753374e-06,3.54197751656247e-06,9.3181322028245e-06,1.72698850669207e-05
6.63297620542803e-06,4.12892769398165e-06,1.01262024254108e-05,2.08881063248204e-05
9.24539578198346e-06,4.8997238052217e-06,1.00228141151081e-05,2.41679337023132e-05
4.52319923228144e-06,3.9111030421177e-06,9.77207993634769e-06,1.82063822107468e-05
5.5848466556405e-06,4.25479465689539e-06,1.04996716049179e-05,2.03393129174538e-05
1.09882083559372e-05,5.49571322106302e-06,1.3393043064151e-05,2.98769646411512e-05
2.54793884451299e-05,1.45531647880101e-05,2.84733209362737e-05,6.85058741694137e-05
5.47258560921537e-06,3.53776166379668e-06,9.96007214420868e-06,1.89704194172207e-05
7.41969696972182e-06,4.7767450394816e-06,9.86639419737907e-06,2.20628362065825e-05
1.84568695256679e-05,1.31206010840739e-05,1.63378409059399e-05,4.79153115156817e-05
9.06272888007828e-06,4.54310463070219e-06,1.05338229267277e-05,2.41396564375082e-05
8.63053930765346e-06,4.33426927000518e-06,9.14535027929206e-06,2.21101588569507e-05
7.81570032501459e-06,4.9929649058065e-06,1.04269478841723e-05,2.32356131149934e-05
2.02840314394131e-05,8.85496266653779e-06,1.44272085834879e-05,4.35662026894389e-05
8.20338667174949e-06,6.73490439975009e-06,1.2869544941984e-05,2.78078360134836e-05
1.00754834229106e-05,4.24037578605625e-06,9.58625460819829e-06,2.39021138171651e-05
8.76370449254778e-06,4.42348238997156e-06,9.27163611285441e-06,2.24588229953737e-05
5.5682169286299e-06,3.58404872106118e-06,8.72209256383315e-06,1.78743582135242e-05
1.26689505677942e-05,5.21737682347442e-06,9.22597906538969e-06,2.71123064566583e-05
8.78877395006899e-06,4.21360543534865e-06,9.31749005703333e-06,2.2319869442451e-05
8.43831259737131e-06,4.60231144991501e-06,9.22218893981042e-06,2.22628129870967e-05
7.47306355458033e-06,4.17697596269568e-06,9.38997422668754e-06,2.10400137439635e-05
1.10269492813343e-05,4.45921846625274e-06,9.14662506157548e-06,2.46327928091625e-05
1.04470619154777e-05,5.67926283394265e-06,1.07821485063729e-05,2.69084732557932e-05
1.32865708025112e-05,5.77448629185977e-06,1.01314796041446e-05,2.91925366985155e-05
8.62510289400952e-06,4.72742543987227e-06,1.06633211733316e-05,2.40158495072134e-05
7.83926308899427e-06,4.1281722675164e-06,9.57933433301609e-06,2.15467696895268e-05
1.13363766351208e-05,5.39032798403201e-06,9.89123759093219e-06,2.6617942210085e-05
9.60180105728214e-06,5.04673118763078e-06,1.10372884734553e-05,2.56858207183683e-05
1.42314285041513e-05,6.60629568152955e-06,1.33566322181417e-05,3.41943564038226e-05
6.80672084070427e-06,3.92288772334889e-06,9.26435730443957e-06,1.99939658684927e-05
1.50795257264531e-05,6.98093430895979e-06,1.25317443216222e-05,3.45922043570351e-05
1.92539465995425e-05,9.93327226914156e-06,1.89986615293477e-05,4.81858803980318e-05
3.19659042892214e-05,2.20979082230761e-05,3.86054451361464e-05,9.26692576484439e-05
1.97632519263078e-05,1.57499964616152e-05,2.29872840488849e-05,5.8500532436808e-05
3.14492850750401e-05,3.71333773127336e-05,3.91575716279308e-05,0.000107740234015704
8.28454289115578e-06,1.25900630789141e-05,2.08321231250741e-05,4.1706729095144e-05
1.3715829517419e-05,1.11302045598632e-05,1.42617856477643e-05,3.91078197250465e-05
1.16515292029859e-05,1.75375940695773e-05,1.62088670397109e-05,4.53979903122741e-05
5.96667547791288e-06,7.44492511753604e-06,1.26748940327754e-05,2.60864946282243e-05
9.24340005360584e-06,7.11370226566752e-06,1.37703154920706e-05,3.01274178113439e-05
8.02808191864813e-06,6.08666797013572e-06,1.40855901022415e-05,2.82003399910253e-05
5.31637422840889e-06,3.96644943684983e-06,9.54505896958767e-06,1.88278826348464e-05
5.48267047913074e-06,3.73191141382989e-06,9.2475904192583e-06,1.84621723122189e-05
6.42655733991388e-06,5.10379677101058e-06,1.158122760394e-05,2.31115817148645e-05
1.58695947185192e-05,1.09708388647568e-05,1.43760927929752e-05,4.12165263762512e-05
9.50311737691507e-06,4.55219397395673e-06,1.01463587915103e-05,2.42016701423821e-05
6.04907531554197e-06,3.85710871052775e-06,9.15820540631689e-06,1.90643894323866e-05
4.93813940563713e-06,3.77136981344628e-06,9.47508044405556e-06,1.8184589663139e-05
5.14312708713067e-06,3.56189364552065e-06,9.26971512189641e-06,1.79747358545477e-05
4.02946463505018e-06,3.48265381314597e-06,8.83883666098797e-06,1.63509551091841e-05
4.4233742197511e-06,3.87000884095452e-06,9.3547815550335e-06,1.76481646157391e-05
4.30247304002124e-06,3.82237174579824e-06,9.75112318189022e-06,1.78759679677097e-05
5.007342148179e-06,3.84055113137049e-06,9.79209723021083e-06,1.86399905097603e-05
6.14837333443833e-06,4.29635794566354e-06,1.01016125397267e-05,2.05463438198286e-05
4.601945854661e-06,4.03189598118787e-06,1.05844574733287e-05,1.92182993091775e-05
3.87078709204423e-06,3.21461869762613e-06,8.42497959416234e-06,1.55103853838327e-05
4.27976043951493e-06,3.58092258938375e-06,8.99960546365683e-06,1.68602884925555e-05
5.66844212866098e-06,4.36139965936518e-06,1.07277787219889e-05,2.0757620510015e-05
2.0186749276877e-05,4.2686843897052e-05,2.35591848001284e-05,8.64327779740575e-05
4.46851687772656e-06,4.02873157698717e-06,1.0753263765751e-05,1.92505122204648e-05
7.77772549445241e-06,7.08709188997711e-06,1.23384725548136e-05,2.72032899392431e-05
1.07483450202723e-05,2.24663405984226e-05,1.35128836205535e-05,4.67275692392484e-05
7.26396731467146e-06,4.83401672115404e-06,1.10170795136011e-05,2.31150635494266e-05
5.6066846589928e-06,4.73978184042039e-06,1.22127348569882e-05,2.25592013564014e-05
8.1900604375966e-06,6.75369278552412e-06,1.32905477567664e-05,2.82343009798871e-05
5.0757823348987e-06,4.17782182032477e-06,1.07026088968552e-05,1.99562130520786e-05
7.80411597237875e-06,4.76902130785979e-06,1.13037457244807e-05,2.38768830047192e-05
8.23060885016925e-06,5.9089731990848e-06,1.32368402984489e-05,2.73764223477029e-05
3.28051265120119e-05,2.02535181471524e-05,3.27995982977485e-05,8.58582429569128e-05
1.62079465075102e-05,1.49135302033404e-05,2.1473872843035e-05,5.25953495538856e-05
1.37285352144672e-05,8.06723874449669e-06,1.9324407004679e-05,4.11201809636429e-05
5.80604692004286e-06,6.07945118309843e-06,1.64453761379261e-05,2.83308742410673e-05
4.85543900335704e-06,3.42564480474103e-06,8.91524165012041e-06,1.71963254582185e-05
4.54436417521902e-05,4.2112566865094e-05,6.08574438230832e-05,0.000148413652440367
6.0558793705645e-06,4.96247217837088e-06,1.39145157562368e-05,2.49328673051722e-05
1.10731668444059e-05,1.09032718630216e-05,1.81989253349251e-05,4.01753640423526e-05
8.97554032825185e-06,1.37228638887175e-05,1.77417764280726e-05,4.04401806450419e-05
1.76508136571047e-05,2.19300956509955e-05,2.89085912921461e-05,6.84895006002463e-05
8.85317864391919e-05,7.09994267895895e-05,6.80563753366001e-05,0.000227587588565382
9.21295607593657e-06,8.1703857465311e-06,1.57798358651914e-05,3.31631776876591e-05
1.06440642520598e-05,2.21618204602119e-05,1.79587261112291e-05,5.07646108235008e-05
2.13042524683387e-05,2.49331366056019e-05,3.76241280678898e-05,8.38615171418304e-05
5.07370895271107e-06,5.81013623927227e-06,1.4401491294327e-05,2.52853364863104e-05
7.57485126421216e-06,8.02853116017057e-06,1.67472678090283e-05,3.2350650233411e-05
6.1933467199651e-06,6.9736957519426e-06,1.67673446010686e-05,2.99343870729763e-05
8.61135479911558e-06,7.08139207489604e-06,1.405663828827e-05,2.97493851622816e-05
3.22328563165677e-05,7.55198040905398e-05,3.938533172674e-05,0.000147137992133848
1.26852047029795e-05,8.98361383796581e-06,2.42344245395245e-05,4.59032430804699e-05
2.42540057422355e-05,8.84039715209916e-06,1.70246225274999e-05,5.01190254218346e-05
0.000120752171934676,0.000136066712540956,0.000126839253693331,0.000383658138168963
6.54438939218599e-05,4.7799882787902e-05,5.64521988085491e-05,0.000169695975518311
4.30775239991419e-05,3.24648325433494e-05,4.6760517523159e-05,0.00012230287406565
7.12150507764652e-05,6.02267637128263e-05,6.39570972724626e-05,0.000195398911761754
3.92405107228929e-05,2.54418016929842e-05,3.30426275804938e-05,9.77249399963709e-05
4.12276067252278e-06,5.3933404151031e-06,1.12600006693228e-05,2.07761017569487e-05
3.7343154210131e-06,3.05523285550246e-06,8.61959575244117e-06,1.54091440289567e-05
3.39841015212581e-06,2.92068340161511e-06,8.02985914975448e-06,1.43489527034954e-05
5.18825264819885e-06,5.2496115839337e-06,1.1197194729256e-05,2.16350589613886e-05
1.1524044268602e-05,8.07914199011519e-06,1.45389215875554e-05,3.41421078462726e-05
3.01196577600182e-05,3.9542025427868e-05,3.48546469484116e-05,0.000104516330136298
7.79061118936485e-05,6.89596226232624e-05,6.35444229419206e-05,0.000210410157458832
3.51720455200826e-05,3.1813581659166e-05,3.60069259042974e-05,0.000102992553083546
3.91617457744798e-05,3.59780136328624e-05,4.08683944078238e-05,0.000116008153815166
5.17280312368576e-06,3.70327224916627e-06,1.01876878277031e-05,1.90637632005552e-05
1.66091589563326e-05,1.88551768828039e-05,2.37481985294454e-05,5.92125343685819e-05
4.80991297218647e-05,4.93945238738252e-05,4.40330474435235e-05,0.000141526701039213
6.09401411687137e-06,5.53572151044334e-06,1.18298066133584e-05,2.34595422406731e-05
3.31276170240765e-06,2.84136785875622e-06,8.13698124060751e-06,1.42911108017714e-05
6.10214093203507e-06,6.02620176890439e-06,1.11273726377034e-05,2.32557153386428e-05
3.98179399816193e-06,3.18238086921078e-06,8.42842312557981e-06,1.55925979929525e-05
9.14352427019534e-06,7.88042692850273e-06,1.27776234718281e-05,2.98015746705261e-05
7.95133656042564e-06,6.12120023332385e-06,1.0373958404631e-05,2.44464951983805e-05
1.13930265434966e-05,6.93344077002891e-06,1.35134169619008e-05,3.18398842754263e-05
1.0123756660217e-05,4.8871271450812e-06,1.16849508149837e-05,2.66958346202819e-05
1.70232644958013e-05,7.26905296274735e-06,1.87954310100132e-05,4.30877484685619e-05
7.44391921116027e-06,5.50293839716588e-06,1.44077738140755e-05,2.73546314224016e-05
3.23194985032708e-06,2.71107011858734e-06,8.24031903007263e-06,1.41833389989871e-05
4.38600669819247e-06,3.7518884934967e-06,9.11069040892395e-06,1.72485856006131e-05
6.4815041131046e-06,5.66692403286041e-06,1.14330740676516e-05,2.35815022136166e-05
1.27269057038439e-05,9.38280084486353e-06,1.91361908972098e-05,4.12458974459172e-05
5.95451801710103e-06,5.19295743794998e-06,1.27767572011402e-05,2.39242326561912e-05
4.39810930763827e-06,3.5732608757411e-06,9.92904518648158e-06,1.7900415369861e-05
5.71803906593598e-06,4.86161282643045e-06,1.0999516187263e-05,2.15791680796294e-05
5.11552135282552e-06,5.62475589715077e-06,1.09734559555426e-05,2.17137332055188e-05
4.89178940094887e-06,4.11532370017629e-06,9.50985944237369e-06,1.85169725434988e-05
1.35018657749952e-05,2.05650906222066e-05,2.41404180931207e-05,5.82073744903225e-05
9.37506337758234e-06,8.68596146170407e-06,1.46233131068757e-05,3.26843379461621e-05
3.78723640568776e-06,3.9092543217e-06,8.79759574672547e-06,1.64940864741132e-05
6.17795065980574e-06,6.85088456881053e-06,1.24041631713317e-05,2.5432998399948e-05
3.61730238024088e-06,3.57108441079679e-06,8.73732052999921e-06,1.59257073210369e-05
8.77729310311093e-06,4.37564428697403e-06,1.17861635715091e-05,2.4939100961594e-05
6.47840724611875e-06,5.62913765390711e-06,9.91425903080864e-06,2.20218039308345e-05
3.97536591925259e-06,3.84017982529766e-06,8.76562668274662e-06,1.65811724272969e-05
7.70563928357119e-06,6.43227900022983e-06,1.3014166596194e-05,2.7152084879995e-05
5.20579687649023e-06,4.30862647733118e-06,1.03992673999019e-05,1.99136907537233e-05
3.19519675314668e-06,2.7860470496725e-06,7.64766705291852e-06,1.36289108557377e-05
1.094788199427e-05,7.85550244987129e-06,1.48956771249544e-05,3.36990615690957e-05
3.28358945084693e-05,3.14479583399164e-05,3.43530437653618e-05,9.86368966137475e-05
1.90767793042304e-05,9.20897055513009e-06,1.48568634261617e-05,4.31426132855222e-05
7.08878777227988e-06,3.62065709333958e-06,9.49096126471309e-06,2.02004061303326e-05
7.95936345022155e-06,6.56525791748665e-06,1.21467089780861e-05,2.66713303457943e-05
1.1501543584257e-05,5.63670068235255e-06,1.08911272967325e-05,2.80293715633421e-05
1.55166513978549e-05,1.392923370287e-05,1.34911244776621e-05,4.2937009578387e-05
4.28131943768178e-06,3.84981811399056e-06,8.9822512359857e-06,1.7113388787658e-05
3.91303155895752e-06,3.99966586754681e-06,8.80878988053337e-06,1.67214873070377e-05
7.69818672656825e-06,5.94502197635267e-06,9.93036740102381e-06,2.35735761039447e-05
4.04304099275514e-06,4.0241856367719e-06,7.90624832866626e-06,1.59734749581933e-05
1.82917732774672e-05,2.29138262811072e-05,2.24879306302824e-05,6.36935301888568e-05
5.26463007273224e-06,3.56685199060865e-06,9.90699669754198e-06,1.87384787608829e-05
6.76421354144762e-06,1.24970831782114e-05,2.04429810862977e-05,3.97042778059568e-05
4.98741977631277e-06,5.50978775760042e-06,9.78916848523691e-06,2.02863760191501e-05
6.32080577926707e-06,4.31505270680335e-06,9.84454396050756e-06,2.0480402446578e-05
4.59878707440107e-06,3.3543967311541e-06,8.70858233547365e-06,1.66617661410288e-05
4.55712156505916e-06,3.38571610934825e-06,8.35646529062778e-06,1.62993029650352e-05
5.26362719856673e-06,4.24559079167653e-06,9.26720505254293e-06,1.87764230427862e-05
4.64561486561337e-06,3.25363802063003e-06,8.54967313318914e-06,1.64489260194325e-05
4.91693330556827e-06,5.02615938934832e-06,9.43513814264289e-06,1.93782308375595e-05
4.00885940025859e-06,3.20803514335347e-06,9.00089623340393e-06,1.6217790777016e-05
4.77961436073782e-06,3.57171707666253e-06,9.10536381113933e-06,1.74566952485397e-05
4.38441651529673e-06,3.42234049113218e-06,8.55972640053098e-06,1.63664834069599e-05
6.31059810987564e-06,6.76438932218249e-06,1.00515644301302e-05,2.31265518621883e-05
3.17330840088538e-05,1.58293233470342e-05,2.77341889913237e-05,7.52965963472117e-05
5.82365189635291e-06,5.09642164474756e-06,1.00913647529432e-05,2.10114382940437e-05
4.23905253856954e-06,4.02041196201252e-06,8.6938636190094e-06,1.69533281195915e-05
6.90210297313748e-06,7.6799999474321e-06,1.20795426373297e-05,2.66616455578993e-05
5.23637879574222e-06,5.09104002895409e-06,1.26305621143263e-05,2.29579809390226e-05
5.66276720283913e-06,5.27067836607966e-06,1.17855460229587e-05,2.27189915918774e-05
3.99843568834483e-06,3.6687247546109e-06,1.05324019453383e-05,1.8199562388294e-05
4.59868553184294e-06,4.75631067368415e-06,1.05075468383674e-05,1.98625430438945e-05
2.31194204804324e-05,2.15732176487654e-05,2.73645095952371e-05,7.20571477244349e-05
5.727493332352e-06,4.94683582408994e-06,1.12862755747073e-05,2.19606047311493e-05
2.45775351182558e-05,2.99927020971922e-05,3.38814770796612e-05,8.84517142951092e-05
1.49754054602693e-05,7.24304174299516e-06,1.64755353906145e-05,3.8693982593879e-05
1.0752280132158e-05,5.86761494395255e-06,1.29509611825767e-05,2.95708562586873e-05
5.54551636729338e-06,4.55371516967925e-06,9.38145828543103e-06,1.94806898224037e-05
1.35949866697449e-05,8.11054312203504e-06,1.27611817834895e-05,3.44667115752694e-05
9.80200920834423e-06,6.53378479693172e-06,1.07704759781986e-05,2.71062699834745e-05
6.35527021994418e-06,5.87872721421417e-06,1.01673646210647e-05,2.24013620552231e-05
4.43386018762838e-06,3.72375363571518e-06,8.59374789310859e-06,1.67513617164521e-05
5.60681953918678e-06,4.96190026315676e-06,1.01196458776445e-05,2.0688365679988e-05
5.39309767610221e-06,4.18893376637916e-06,8.90102510624414e-06,1.84830565487255e-05
1.14042790791946e-05,6.52540769655106e-06,1.41210265958817e-05,3.20507133716273e-05
6.75912058256391e-06,4.02378548345701e-06,9.4012649585902e-06,2.01841710246111e-05
5.72196927825827e-06,4.02834092185116e-06,9.53297049285367e-06,1.92832806929631e-05
1.14088369563673e-05,7.95660523263667e-06,1.41742091104001e-05,3.35396512994041e-05
1.20633428622729e-05,8.79051984548898e-06,1.33153712776822e-05,3.41692339854441e-05
9.08085385798174e-06,5.28638197093927e-06,1.31034631920475e-05,2.74706990209685e-05
6.51895514085809e-06,4.96781043945326e-06,9.96084635117009e-06,2.14476119314814e-05
8.54977644781299e-06,6.13019155897731e-06,1.21008897886299e-05,2.67808577954202e-05
7.39072053204117e-06,4.01138829677448e-06,9.93334058565253e-06,2.13354494144682e-05
6.74031151945849e-06,4.04740565922153e-06,1.00287834834545e-05,2.08165006621345e-05
9.57949276224218e-06,8.28215266129014e-06,1.32561637346919e-05,3.11178091582242e-05
4.1108014056159e-06,3.78759288414333e-06,8.86807257778298e-06,1.67664668675422e-05
9.74591965037172e-06,7.13866828519417e-06,1.18541129561544e-05,2.87387008917203e-05
5.63334558801121e-06,4.18529629388351e-06,1.03272445050178e-05,2.01458863869125e-05
6.39579126025548e-06,4.09524637405662e-06,9.56995576300157e-06,2.00609933973137e-05
7.81596692820912e-06,7.07941637569971e-06,1.37403155636324e-05,2.86356988675413e-05
2.569804713646e-05,1.21448277089838e-05,2.05348832054052e-05,5.83777580508489e-05
2.35775215862708e-05,1.05292963248332e-05,1.65978138489865e-05,5.07046317600905e-05
2.06247750046226e-05,8.98123328558859e-06,1.49746965322144e-05,4.45807048224256e-05
8.21173896511352e-06,3.90730653274837e-06,1.22258744311117e-05,2.43449199289735e-05
1.54381138031683e-05,8.2350445849237e-06,1.52479536192006e-05,3.89211120072926e-05
1.84355625235368e-05,5.62834064945858e-06,1.46609526113976e-05,3.8724855784393e-05
1.52709514180653e-05,5.75294742131679e-06,1.4854618043053e-05,3.58785168824351e-05
3.2556992938059e-06,3.18308934130762e-06,7.89347750053939e-06,1.43322661356529e-05
1.98888510132784e-05,6.76963140843028e-06,1.73469854700951e-05,4.40054678918038e-05
2.79846109017263e-05,1.31253624004788e-05,1.64509042613096e-05,5.75608775635147e-05
1.08014398238528e-05,5.31032084827438e-06,1.41088741745002e-05,3.02206348466273e-05
3.0516167051025e-05,1.98849004491733e-05,3.09012426676197e-05,8.1302310167818e-05
3.0580312191205e-05,1.35376809853632e-05,2.24189144541007e-05,6.6536907630669e-05
1.69746525143172e-05,6.56117405081761e-06,1.34219585366431e-05,3.69577851017779e-05
1.40726842985438e-05,5.86310456623233e-06,2.23538669604954e-05,4.22896558252715e-05
2.6487143845819e-05,1.82309676264353e-05,3.19378999088217e-05,7.66560113810761e-05
1.76779902888188e-05,7.42058642089341e-06,1.81011140915142e-05,4.31996908012264e-05
4.64155984121253e-06,3.97563425890217e-06,9.80768463329589e-06,1.84248787334106e-05
3.30413949850039e-06,3.05400891916823e-06,9.43178045643367e-06,1.57899288741023e-05
8.34710809928739e-06,3.48476658299907e-06,8.96489207336866e-06,2.07967667556551e-05
3.47137671244498e-06,3.1070813081352e-06,9.05391312294975e-06,1.56323711435299e-05
1.97357756858216e-05,3.77401423602939e-05,6.96630243010552e-05,0.000127138942347171
1.7734582206482e-05,1.28158580121385e-05,2.17893759820018e-05,5.23398162006223e-05
3.93930215733071e-06,3.15692511948875e-06,8.84650761559502e-06,1.59427348924145e-05
2.34344284552141e-05,1.55804584430638e-05,1.74099657869639e-05,5.64248526852418e-05
1.6289175718821e-05,9.57700643301084e-06,1.43555184639276e-05,4.02217006157594e-05
5.35944758593923e-05,1.11755931029986e-05,1.97851118871386e-05,8.45551808495294e-05
1.74082696554224e-05,5.07916290099997e-06,1.06834387877435e-05,3.31708713441658e-05
2.11567470229231e-05,1.08731467598292e-05,1.79687186023361e-05,4.99986123850883e-05
1.57286310129917e-05,6.61448708315508e-06,1.38565647694089e-05,3.61996828655557e-05
1.73227732464651e-05,2.06127693498839e-05,3.61478423178919e-05,7.4083384914241e-05
2.70768202016254e-05,1.63326182494886e-05,2.39673406100744e-05,6.73767790611884e-05
1.07896103990229e-05,8.62649231433219e-06,1.37898398888245e-05,3.32059426021796e-05
6.97936068638616e-06,9.25555606135113e-06,1.44786025437137e-05,3.0713519291451e-05
1.32262621037235e-05,8.32434702546055e-06,1.45553365482135e-05,3.61059456773976e-05
3.87260377838147e-06,3.26618703967054e-06,9.16745067388785e-06,1.63062414919399e-05
1.1539741006743e-05,8.62586133896397e-06,1.53471459734842e-05,3.55127483191912e-05
1.13915085795986e-05,7.64625294893857e-06,1.53215380632267e-05,3.43592995917638e-05
6.74415938164369e-06,4.6121930541843e-06,1.06190626801127e-05,2.19754151159407e-05
5.98159589420982e-06,5.51848444881381e-06,1.07605681432212e-05,2.22606484862448e-05
4.26098802597636e-06,3.52611480921882e-06,9.30479634569852e-06,1.70918991808937e-05
1.00558709150652e-05,6.09006866897742e-06,1.2147637659715e-05,2.82935772437576e-05
1.12288705238231e-05,8.26914950024347e-06,1.36162359340153e-05,3.31142559580819e-05
4.78188365629158e-06,3.79080945425602e-06,9.57244421279964e-06,1.81451373233472e-05
5.37896123949751e-06,3.81916767851461e-06,1.00603993591934e-05,1.92585282772055e-05
5.29146783434836e-06,4.00400769212915e-06,9.88416388526485e-06,1.91796394117424e-05
9.86245994563047e-06,9.23877171634849e-06,1.39785892653406e-05,3.30798209273196e-05
4.58960051268723e-06,3.34209911953933e-06,8.88156520637198e-06,1.68132648385985e-05
5.36369353886452e-06,3.83296920217132e-06,9.58954205990127e-06,1.87862048009371e-05
4.97366127378905e-06,4.80395353023706e-06,1.04538446257225e-05,2.02314594297486e-05
4.56091362794711e-06,3.68048375994884e-06,9.63672439382712e-06,1.78781217817231e-05
7.70739353308232e-06,6.34192199805691e-06,1.2827237427088e-05,2.68765529582272e-05
5.43407664154411e-06,4.03436974713258e-06,9.23698718439242e-06,1.87054335730691e-05
4.67605493255306e-06,3.47406316330846e-06,8.95622234788763e-06,1.71063404437492e-05
5.00520034244525e-06,3.74842291885681e-06,9.30346242818637e-06,1.80570856894884e-05
6.3985226434745e-06,4.82435576884247e-06,1.20752779114181e-05,2.3298156323735e-05
1.30330571106011e-05,1.8030234010539e-05,2.28017184312472e-05,5.38650095523873e-05
3.18661302884891e-05,4.04225155554684e-05,6.03181263644512e-05,0.000132606772208409
3.28341202728243e-06,3.21508957802434e-06,8.93497722515034e-06,1.54334788304571e-05
2.98818224890695e-06,2.87371663869718e-06,8.21556849715576e-06,1.40774673847599e-05
1.54654961792639e-05,2.202274255727e-05,3.15274705319219e-05,6.90157092684558e-05
4.37208154095377e-06,4.37121597688708e-06,9.46421922657629e-06,1.82075167444171e-05
3.56083676236168e-06,3.10748636831374e-06,8.06032432759395e-06,1.47286474582694e-05
6.7076646916745e-06,3.62866399166708e-06,8.32843853536893e-06,1.86647672187105e-05
5.78761630788709e-06,3.43078204114866e-06,8.56044374129537e-06,1.77788420903311e-05
5.50953117578412e-06,3.37239918850973e-06,8.83113795540959e-06,1.77130683197034e-05
5.7471247751556e-06,3.60192962256612e-06,8.8704151228272e-06,1.82194695205489e-05
6.36560736760278e-06,3.73224159391891e-06,9.77582786433709e-06,1.98736768258588e-05
4.86169860220233e-06,3.49751708671507e-06,9.65308071708826e-06,1.80122964060057e-05
6.01465827928944e-06,3.62260880796077e-06,8.98031246832504e-06,1.86175795555753e-05
1.52338827066367e-05,1.40943675097271e-05,1.831616213693e-05,4.76444123532938e-05
1.19674848640721e-05,7.0250432505933e-06,1.48036316707936e-05,3.3796159785459e-05
8.04883965779204e-06,3.80989166362045e-06,9.26751796588741e-06,2.11262492872999e-05
1.19735913263417e-05,5.76422607312869e-06,1.14585531946203e-05,2.91963705940907e-05
2.31344550242487e-05,8.59874824260463e-06,1.79287442480839e-05,4.96619475149373e-05
1.6868647840342e-05,7.82817975498664e-06,1.51619927511995e-05,3.98588203465282e-05
8.25117840458057e-06,4.80599417452647e-06,1.06770481195505e-05,2.37342206986575e-05
6.42679581667894e-06,3.40005405632358e-06,9.233246830901e-06,1.90600967039035e-05
6.71468563441975e-06,3.56532940601268e-06,9.30544137519169e-06,1.95854564156241e-05
1.94410962565938e-05,1.0030425017707e-05,1.78585142291384e-05,4.73300355034392e-05
7.34309795943901e-06,4.06109626199161e-06,1.00329115606363e-05,2.14371057820669e-05
7.20323343085625e-06,4.37791698640927e-06,9.8003903534941e-06,2.13815407707596e-05
7.9312078489516e-06,4.65127474773384e-06,1.06407676368736e-05,2.3223250233559e-05
5.60174794355676e-06,3.19674991333671e-06,8.53750230674997e-06,1.73360001636434e-05
1.01327352827289e-05,5.49154435751688e-06,1.20930079242964e-05,2.77172875645422e-05
8.19791576825904e-06,3.95371352585566e-06,9.15845557288139e-06,2.13100848669961e-05
6.65404176448719e-06,3.42281281226266e-06,7.98782943487742e-06,1.80646840116273e-05
5.50346282883823e-06,4.03336846566692e-06,9.65292352640324e-06,1.91897548209084e-05
3.81354409253049e-06,3.30642537194005e-06,8.17980023321577e-06,1.52997696976863e-05
1.09405142808564e-05,5.81904304382684e-06,1.15915271319216e-05,2.83510844566049e-05
7.98193023768886e-06,4.75107313781918e-06,9.73518438015994e-06,2.2468187755668e-05
6.16935215360259e-05,4.33890362891122e-05,4.35430308537473e-05,0.000148625588678885
1.59652120293175e-05,1.07431124918712e-05,1.52162723803834e-05,4.19245969015721e-05
1.03531746435254e-05,4.5631048905628e-06,9.58865967001026e-06,2.45049392040985e-05
1.15400907347228e-05,6.39449388477028e-06,1.09182040349325e-05,2.88527886544256e-05
7.50948520630008e-06,5.65335874431826e-06,9.88275534263132e-06,2.30455992932497e-05
8.35563975122207e-06,4.92625221171022e-06,1.08428729782754e-05,2.41247649412077e-05
6.48597440255307e-06,3.38963165644349e-06,9.61681077835254e-06,1.94924168373491e-05
2.63505193101798e-05,1.2355316945786e-05,1.39100287131944e-05,5.26158649691602e-05
8.95418207462279e-05,0.000114345220537424,7.17041777361877e-05,0.000275591219019839
7.8205477940647e-05,5.45592575921238e-05,4.56689898152715e-05,0.000178433725348042
3.60773204980398e-05,2.76706084585538e-05,2.32925387707229e-05,8.70404677273164e-05
6.18162249490436e-06,5.41554180282942e-06,9.95470404707675e-06,2.15518683448105e-05
5.85358830391743e-06,5.07962631731472e-06,9.65115455532559e-06,2.05843691765577e-05
1.35329855995523e-05,6.80495334059101e-06,1.22655272608941e-05,3.26034662010375e-05
3.88252927546023e-06,3.53146544850853e-06,8.83324800204168e-06,1.62472427260104e-05
6.24815289937571e-06,5.28811115664067e-06,1.04886246191463e-05,2.20248886751627e-05
6.60499645303665e-06,6.72316772863595e-06,9.51638687526253e-06,2.28445510569351e-05
3.15708730427412e-06,3.028457679389e-06,8.10130520331067e-06,1.42868501869738e-05
3.39610593048628e-06,3.20409050554653e-06,8.0754937101254e-06,1.46756901461582e-05
5.19117840382753e-06,3.80688544024817e-06,9.09000937541412e-06,1.80880732194898e-05
4.7925136203109e-06,4.39908656921046e-06,9.48208368513786e-06,1.86736838746592e-05
1.14229467294893e-05,6.94820004357957e-06,1.13451892746911e-05,2.97163360477599e-05
3.16816345334377e-06,3.08772282057316e-06,7.61396750388602e-06,1.3869853777803e-05
3.32212381876029e-06,3.31593176264107e-06,7.82764345300634e-06,1.44656990344077e-05
3.4334832463333e-06,3.92019237542212e-06,7.54751242173128e-06,1.49011880434867e-05
3.37154231063298e-06,3.62446071999603e-06,7.95179190813852e-06,1.49477949387675e-05
3.14589451697457e-06,3.23371718081054e-06,8.05095428447457e-06,1.44305659822597e-05
3.21960037206278e-06,3.13905791391748e-06,7.28190163391208e-06,1.36405599198923e-05
3.3214528511643e-06,3.20777234829239e-06,7.71892270276305e-06,1.42481479022197e-05
3.66092509306949e-06,3.63416503669674e-06,8.53491827978956e-06,1.58300084095558e-05
3.54600541260509e-06,3.49464466947261e-06,8.00236909288186e-06,1.50430191749596e-05
3.30857479341101e-06,3.39636524050584e-06,8.14437559537044e-06,1.48493156292873e-05
3.7797624920405e-06,4.75585664154018e-06,8.50470571398706e-06,1.70403248475677e-05
3.34892070116857e-06,3.79307781953372e-06,8.02669431713079e-06,1.51686928378331e-05
3.51031825729722e-06,3.58567829056009e-06,8.02214247135319e-06,1.51181390192105e-05
5.43660386385298e-06,5.2078446013996e-06,9.48427793018555e-06,2.01287263954381e-05
1.4036991788779e-05,1.23538310699997e-05,1.87936105888361e-05,4.51844334476149e-05
2.47131513295169e-05,1.37697840025623e-05,1.78418687593639e-05,5.63248040914431e-05
4.58308794592184e-06,3.3456841866791e-06,8.25211864639003e-06,1.6180890778991e-05
3.11026831347998e-06,2.87776818294067e-06,7.90818360779223e-06,1.38962201042129e-05
3.61141052804876e-06,3.38469111508894e-06,7.8730376774592e-06,1.48691393205969e-05
8.87864062654652e-06,5.83546372728296e-06,1.02511740727264e-05,2.49652784265558e-05
6.9507453229944e-05,2.61543326684161e-05,4.41408845461235e-05,0.000139802670444484
4.42634686577327e-05,3.70467185172024e-05,6.17989079575485e-05,0.000143109095132484
6.84274655933417e-05,0.00019805987978977,9.68560328825318e-05,0.000363343378265644
9.64058822599176e-06,8.13782844556958e-06,1.19189554883248e-05,2.96973721598862e-05
4.97765839269722e-06,3.81461892400517e-06,9.31733307487703e-06,1.81096103915794e-05
6.30204749085771e-06,3.71619770389033e-06,9.30217237034886e-06,1.93204175650969e-05
6.43424600599363e-06,5.59277613664114e-06,9.90281680462324e-06,2.1929838947258e-05
8.04922176181046e-06,7.89081019231686e-06,1.13249552607134e-05,2.72649872148407e-05
9.17994753026504e-06,6.96243876830907e-06,1.16213645111667e-05,2.77637508097408e-05
9.9092671538684e-06,1.37108216919519e-05,1.10749250282726e-05,3.46950138740929e-05
6.40707513554469e-06,4.52230544432607e-06,1.04333212970826e-05,2.13627018769534e-05
1.05323487703954e-05,1.00918888857372e-05,1.31399225065186e-05,3.37641601626512e-05
9.64470079397983e-06,7.90664563390976e-06,1.27777604388639e-05,3.03291068667535e-05
1.00699550378446e-05,5.72385542760771e-06,1.14188461751423e-05,2.72126566405945e-05
8.63395526267725e-06,8.55760207666873e-06,1.4455012093915e-05,3.16465694332609e-05
3.83539819219578e-06,3.80487354143961e-06,9.46850845057143e-06,1.71087801842068e-05
9.01093318357408e-06,9.60652573580598e-06,1.16799747415503e-05,3.02974336609303e-05
2.23960731427911e-05,2.16853232511652e-05,2.00675371975373e-05,6.41489335914936e-05
7.53256563189823e-06,1.11075742599518e-05,1.19173975694707e-05,3.05575374613207e-05
1.50049037840266e-05,2.2456952751704e-05,1.5319345988941e-05,5.27812025246716e-05
6.82585669766043e-06,7.27902400928225e-06,1.01152261693327e-05,2.42201068762754e-05
1.35027350436448e-05,1.81339517041542e-05,1.3082756558993e-05,4.4719443306792e-05
1.22814880470827e-05,1.47440716123125e-05,1.41034403542464e-05,4.11290000136416e-05
1.92560347492442e-05,1.7483608565606e-05,2.22997765138505e-05,5.90394198287007e-05
6.69921403508149e-06,5.83028953899405e-06,1.02116417653799e-05,2.27411453394554e-05
5.32661795383861e-06,4.14619800920607e-06,9.13473289579462e-06,1.86075488588393e-05
1.07814215305309e-05,6.15682318755847e-06,1.18144997702279e-05,2.87527444883173e-05
8.35914673735927e-06,4.84423004612983e-06,1.11521289422792e-05,2.43555057257683e-05
1.29668693308964e-05,8.84664489774556e-06,1.27617154825652e-05,3.45752297112072e-05
3.75043146997781e-06,3.89705635790402e-06,7.9822852055754e-06,1.56297730334572e-05
3.84521030324725e-06,3.70592918488593e-06,7.55462734091164e-06,1.51057668290448e-05
1.21427473735522e-05,9.2727926419648e-06,1.08842564235487e-05,3.22997964390657e-05
1.28896338827431e-05,1.22067941278973e-05,1.2010474878132e-05,3.71069028887725e-05
8.67917157631426e-06,7.43724331219746e-06,9.15805370103383e-06,2.52744685895455e-05
3.93961881567418e-06,3.48324547463458e-06,8.00457644635215e-06,1.54274407366609e-05
4.44386073380634e-06,3.70319229961699e-06,8.21914751392769e-06,1.6366200547351e-05
1.55099383091019e-05,1.11632916152529e-05,1.28824467797836e-05,3.95556767041383e-05
9.16001752922928e-06,7.01912481324267e-06,1.06054485399946e-05,2.67845908824665e-05
6.05329424633093e-06,4.56272854329786e-06,8.4499161546185e-06,1.90659389442473e-05
1.15780000970091e-05,1.89424473701028e-05,1.30889754934283e-05,4.36094229605402e-05
2.29631052799929e-05,1.21453733463901e-05,1.92136473943417e-05,5.43221260207247e-05
4.14907921029628e-06,3.47380247416007e-06,7.68601048319488e-06,1.53088921676512e-05
1.04666290485731e-05,5.6450828123213e-06,1.1226606025234e-05,2.73383178861284e-05
7.29849388117036e-06,5.78836398381926e-06,1.02219332408962e-05,2.33087911058858e-05
3.87556425420849e-06,3.51532494776477e-06,7.69914118522197e-06,1.50900303871952e-05
7.28899926139909e-06,5.80673197661676e-06,1.08562097868588e-05,2.39519410248747e-05
1.16526444939641e-05,1.65201350624118e-05,2.41525220245295e-05,5.23253015809053e-05
8.038401123678e-06,5.55731908352035e-06,1.45338591384549e-05,2.81295793456533e-05
7.04408996119934e-06,4.10090257260956e-06,1.2677620249906e-05,2.38226127837149e-05
6.23418419586923e-06,3.88863587322664e-06,1.16990868160848e-05,2.18219068851806e-05
6.5085469769573e-06,6.46931571336735e-06,1.17258471833454e-05,2.470370987367e-05
5.73832553101187e-06,3.55996153459781e-06,9.54945447037213e-06,1.88477415359818e-05
5.73684734844658e-06,3.6577702279563e-06,9.65809835929418e-06,1.90527159356971e-05
6.62328155001809e-06,4.01371264809075e-06,9.76671921454972e-06,2.04037134126586e-05
1.26829434235526e-05,1.59994848008889e-05,1.32373755962398e-05,4.19198038206813e-05
9.63335110313806e-06,5.7042904969169e-06,1.12794789070816e-05,2.66171205071366e-05
5.42307484342513e-06,3.4768949877244e-06,7.71441938253551e-06,1.6614389213685e-05
5.39389479043419e-06,1.0538914015938e-05,9.96139093059991e-06,2.58941997369721e-05
1.55141643806004e-05,6.40277980432205e-06,1.30785821577843e-05,3.49955263427068e-05
6.82858591755817e-06,3.56531918732426e-06,9.60268744381828e-06,1.99965925487007e-05
6.2644792784094e-06,9.06965257493156e-06,8.34969924037581e-06,2.36838310937168e-05
6.08377812555558e-06,4.15253957884481e-06,9.88789210273047e-06,2.01242098071309e-05
5.00583965260112e-06,3.34081262941745e-06,8.67628432633981e-06,1.70229366083584e-05
3.4987059545378e-06,2.97776654862436e-06,7.49036818867117e-06,1.39668406918333e-05
3.68692243804365e-06,2.99355819540205e-06,7.93437364495173e-06,1.46148542783974e-05
6.62648954146018e-06,4.17663887282398e-06,9.7937844193748e-06,2.0596912833659e-05
9.20830678153166e-06,4.69010321373399e-06,9.95723017782231e-06,2.3855640173088e-05
6.80641946812889e-06,3.59095697902096e-06,8.39256947514218e-06,1.8789945922292e-05
6.6498970441827e-06,4.33242274414967e-06,9.2505606005989e-06,2.02328803889313e-05
7.72003433506928e-06,4.59608753504005e-06,9.75073414151418e-06,2.20668560116235e-05
6.65944980958002e-06,5.0172412915701e-06,9.04241738718851e-06,2.07191084883386e-05
5.10280409287054e-06,3.56985140938741e-06,9.17488172855207e-06,1.784753723081e-05
1.07036436849276e-05,5.94629669716361e-06,1.04695988749511e-05,2.71195392570423e-05
5.99440617071447e-06,3.78744899703194e-06,8.95883653342534e-06,1.87406917011717e-05
1.6499075281303e-05,1.83067300132887e-05,1.93371036311238e-05,5.41429089257155e-05
1.68532655905826e-05,1.81876684588171e-05,1.8833702695462e-05,5.38746367448616e-05
5.42973520906171e-06,4.40312848092118e-06,9.97399942932563e-06,1.98068631193085e-05
6.50945989590528e-06,6.55059348006019e-06,1.01830934118681e-05,2.32431467878335e-05
3.75761825035239e-06,3.12645496751593e-06,7.87888172239723e-06,1.47629549402655e-05
6.02980349937363e-06,4.44847268468292e-06,9.37726677121893e-06,1.98555429552755e-05
6.09416919233787e-06,4.35352181862083e-06,9.27711350613884e-06,1.97248045170975e-05
5.75487393167677e-06,4.41104434877649e-06,9.89870793945813e-06,2.00646262199114e-05
5.59875985402832e-06,4.45485191883515e-06,9.53244998534647e-06,1.95860617582099e-05
4.84447088963939e-06,4.50640034092425e-06,8.5184877572984e-06,1.7869358987862e-05
5.58700437104763e-06,4.12054410159825e-06,9.65020184027508e-06,1.9357750312921e-05
1.04640143780051e-05,1.02241951785315e-05,1.05178881109351e-05,3.12060976674717e-05
4.89090230362331e-06,4.22226956655991e-06,8.46561374435816e-06,1.75787856145414e-05
4.6248281134233e-06,3.82019197488789e-06,7.8153242711257e-06,1.62603443594369e-05
4.3178497897979e-06,3.68800034758391e-06,8.36705300723951e-06,1.63729031446213e-05
9.29604139201075e-06,1.00254515402342e-05,1.21393994094672e-05,3.14608923417121e-05
5.77260082042185e-06,4.31298357871215e-06,9.76772575233773e-06,1.98533101514717e-05
5.25690354199425e-06,4.63296203638657e-06,9.92125322125439e-06,1.98111187996352e-05
1.00104352123817e-05,7.22701449218427e-06,1.22625839472421e-05,2.95000336518081e-05
5.69320969275892e-06,4.31069871705404e-06,9.67107342852518e-06,1.96749818383381e-05
3.68203289232373e-06,2.99082567232507e-06,8.00503227226807e-06,1.46778908369169e-05
1.09323083272525e-05,7.48679742086813e-06,1.31016785678562e-05,3.15207843159769e-05
9.18919689558419e-06,6.93801204846477e-06,1.13560367550105e-05,2.74832456990594e-05
5.40491448022845e-06,4.08401218785979e-06,8.60671208463041e-06,1.80956387527187e-05
5.65059774593526e-06,3.81122154412983e-06,8.43012036546972e-06,1.78919396555348e-05
1.02615002406971e-05,1.49162784767399e-05,1.34941832355922e-05,3.86719619530293e-05
7.16956956489101e-06,5.67599628696138e-06,1.01754958367995e-05,2.30210616886519e-05
4.95607004561781e-06,3.94390805810812e-06,9.13068694513586e-06,1.80306650488618e-05
7.82404072532086e-06,4.41657525773451e-06,9.81524887067761e-06,2.2055864853733e-05
1.29546721382641e-05,2.94454087109549e-05,1.17482674296383e-05,5.41483482788574e-05
5.31935146364772e-06,3.93061773018966e-06,8.30011062192208e-06,1.75500798157595e-05
5.66144074437408e-06,4.17055187193283e-06,1.01211988578168e-05,1.99531914741238e-05
3.49722622874338e-05,4.61283928775378e-05,4.00934958759035e-05,0.000121194151040875
1.1582081648338e-05,7.74405762453133e-06,1.31850711010094e-05,3.25112103738788e-05
2.45690018481161e-05,1.6595316997161e-05,1.63197209640933e-05,5.74840398093704e-05
5.40564761164342e-06,3.6138821853196e-06,1.03716779534045e-05,1.93912077503675e-05
7.38484206224353e-06,5.37828374174768e-06,1.21907855296737e-05,2.49539113336649e-05
6.25393764089792e-06,4.30646644555628e-06,9.77390624505934e-06,2.03343103315135e-05
6.70914397087482e-06,5.97411618519771e-06,1.00666274195172e-05,2.27498875755897e-05
6.02384171750071e-06,3.62359122642835e-06,1.00993459607532e-05,1.97467789046823e-05
5.61375264560953e-06,3.35130049937098e-06,8.54778750803273e-06,1.75128406530132e-05
5.05554045057952e-06,3.42700867009276e-06,8.34001567157105e-06,1.68225647922433e-05
5.65751085998857e-06,3.89744326757516e-06,9.3540168833574e-06,1.89089710109211e-05
4.39562329270679e-06,3.05281692749259e-06,8.34468211409896e-06,1.57931223342983e-05
5.1004442228179e-06,3.54974407938718e-06,8.6332784026683e-06,1.72834667048734e-05
4.92232254342883e-06,3.46209616877854e-06,8.90345719008498e-06,1.72878759022924e-05
5.90475214208496e-06,3.39164467323739e-06,8.65385768114557e-06,1.79502544964679e-05
6.53934696250919e-06,4.30369005260155e-06,9.60057741414982e-06,2.04436144292606e-05
6.51703758126493e-06,4.67011192041475e-06,1.00312308515563e-05,2.1218380353236e-05
3.26054479855941e-05,2.52352199909967e-05,1.95608079083042e-05,7.7401475884895e-05
9.07823368810389e-06,1.30427044971508e-05,1.16392587591779e-05,3.37601969444326e-05
9.88682077431394e-06,5.18447219549702e-06,1.02779330605339e-05,2.53492260303449e-05
6.45973346439696e-06,4.51957885981475e-06,8.83682440698982e-06,1.98161367312015e-05
5.75199196042648e-06,3.99752663164994e-06,8.96407144724906e-06,1.87135900393255e-05
4.92582598435525e-06,3.41112273857242e-06,8.10920424591765e-06,1.64461529688453e-05
1.56108388757088e-05,8.30758503938156e-06,1.18000643463179e-05,3.57184882614082e-05
5.73160908086752e-06,4.05251779441277e-06,8.63601194409473e-06,1.8420138819375e-05
7.99564101987979e-06,5.31192673066421e-06,9.56482406435688e-06,2.28723918149009e-05
6.14404890301268e-06,4.32916944165751e-06,8.90250136423393e-06,1.93757197089041e-05
6.58815629738951e-06,3.96065791695443e-06,8.55330730707192e-06,1.91021215214159e-05
1.10098561759817e-05,6.14882152468679e-06,1.10501272354017e-05,2.82088049360702e-05
1.59670534902227e-05,7.85628356653339e-06,1.27928043027604e-05,3.66161413595166e-05
8.99959929962154e-06,5.92968014642061e-06,1.07858321654237e-05,2.57151116114659e-05
7.4525668997924e-06,4.08723729593682e-06,9.63741389558008e-06,2.11772180913093e-05
6.2676117638887e-06,3.67373084067107e-06,9.08924580063529e-06,1.90305884051951e-05
5.34764257609873e-06,3.39965170674127e-06,8.87226866849459e-06,1.76195629513346e-05
6.54069163127984e-06,3.64454494546193e-06,8.50198941484927e-06,1.8687225991591e-05
7.63129586541028e-06,5.23602927296881e-06,9.66620212829046e-06,2.25335272666696e-05
6.55143341017213e-06,4.87014979038709e-06,8.89968877273928e-06,2.03212719732985e-05
5.01725582261944e-06,3.35297835804579e-06,8.31692653303388e-06,1.66871607136991e-05
7.20711234498492e-06,3.98605839781777e-06,8.56577329091838e-06,1.97589440337211e-05
5.75197751178153e-06,3.54055615630926e-06,8.47570830479124e-06,1.7768241972882e-05
4.33991379575121e-06,2.9567067169885e-06,7.85722507960068e-06,1.51538455923404e-05
4.84074769345844e-06,3.13196731265004e-06,8.44033261957576e-06,1.64130476256842e-05
7.25788417106619e-06,4.85507089461687e-06,9.5132551895613e-06,2.16262102552444e-05
6.35958831403909e-06,4.30443009486156e-06,9.23923719233752e-06,1.99032556012382e-05
3.38216878522271e-06,2.79930081295851e-06,7.4641128712983e-06,1.36455824694795e-05
3.60185665461731e-06,3.0125292171996e-06,7.64447820806104e-06,1.4258864079878e-05
3.41647022700759e-06,3.00827999328188e-06,7.76177889529244e-06,1.41865291155819e-05
3.43702267432204e-06,2.81747463758651e-06,7.47282028445677e-06,1.37273175963653e-05
3.90757538829913e-06,3.60349564045588e-06,8.17028314888199e-06,1.5681354177637e-05
5.84509531555833e-06,4.29297223530233e-06,8.75369520772328e-06,1.88917627585839e-05
6.52921902051447e-06,3.83321131041625e-06,8.37520191827412e-06,1.87376322492048e-05
1.65468043397522e-05,9.84709631423649e-06,1.54020138058938e-05,4.17959144598825e-05
9.60334964084926e-06,8.24100129874877e-06,1.19312296088946e-05,2.97755805484926e-05
1.31304980837401e-05,6.44429025435052e-06,1.43124550839674e-05,3.3887243422058e-05
6.71673824401922e-06,6.45585866771449e-06,1.00135185498145e-05,2.31861154615482e-05
8.46515122586465e-06,4.99110819226857e-06,9.68357123474943e-06,2.31398306528826e-05
9.77932404579666e-06,1.10136946411171e-05,1.7018221522999e-05,3.78112402099128e-05
5.47646813433169e-06,4.04583810055048e-06,8.49042920020428e-06,1.80127354350864e-05
9.55963919039827e-06,5.13091620402868e-06,8.8445904500279e-06,2.35351458444549e-05
4.39134939611381e-06,3.3702961658085e-06,8.55869633118575e-06,1.63203418931081e-05
2.02348719338347e-05,1.46525235796518e-05,2.13832813671465e-05,5.6270676880633e-05
1.67736100277888e-05,2.06402038194647e-05,3.29326122789698e-05,7.03464261262234e-05
6.8769828564897e-06,5.16029514951277e-06,9.09429189275402e-06,2.11315698987565e-05
8.84318071789077e-06,5.44244082506235e-06,9.6459323505719e-06,2.3931553893525e-05
1.22987595179714e-05,8.86032949810126e-06,1.52527801427504e-05,3.64118691588231e-05
0.000115993263772123,0.000379602208195309,8.59039486545041e-05,0.000581499420621936
3.28856065365241e-06,3.21384036490134e-06,8.0237936725555e-06,1.45261946911092e-05
3.10993420957181e-06,3.06224346602322e-06,7.56438438734821e-06,1.37365620629432e-05
4.41199781914266e-06,3.07580283304254e-06,8.09036262502744e-06,1.55781632772126e-05
3.04098494595846e-06,2.98730226792378e-06,7.54901356964117e-06,1.35773007835234e-05
3.59600325052396e-06,3.31130257257895e-06,7.56244608470933e-06,1.44697519078122e-05
1.75697729037781e-05,1.05321866265437e-05,1.41394639975678e-05,4.22414235278897e-05
6.25951058780607e-06,4.68588708751369e-06,8.86696876417477e-06,1.98123664394945e-05
5.65377752855273e-06,4.07318706941649e-06,9.45039538890596e-06,1.91773599868752e-05
3.92452842774429e-06,3.35216907085051e-06,7.80318816096852e-06,1.50798856595633e-05
5.64749487111926e-06,4.05967288389255e-06,1.00997594470662e-05,1.9806927202078e-05
8.53864400045159e-06,7.82615497322591e-06,1.24530391201262e-05,2.88178380938037e-05
3.6059166657098e-06,3.33722251459097e-06,9.69502605350772e-06,1.66381652338085e-05
3.88323585547188e-06,3.4657856228053e-06,8.57933134449583e-06,1.5928352822773e-05
8.25143353136114e-06,1.29235286169588e-05,1.73320700280162e-05,3.85070321763361e-05
5.23146636511664e-06,4.03351467364228e-06,8.19251807239572e-06,1.74574991111546e-05
5.12804015382946e-06,3.48760544076885e-06,7.9028613810825e-06,1.65185069756808e-05
5.13666539283483e-06,3.59603869253359e-06,8.76160885027663e-06,1.74943129356451e-05
4.93700276439729e-06,3.72045852501824e-06,8.9497641772457e-06,1.76072254666612e-05
5.13700072059743e-06,5.76313661576389e-06,9.10343335645674e-06,2.00035706928181e-05
7.06780702803113e-05,5.75886277935214e-05,6.57111766748565e-05,0.000193977874748689
7.43031016133015e-05,0.000166566432925949,0.000126253886524394,0.000367123421063645
6.25648712809647e-05,2.30767690990687e-05,4.13215196002229e-05,0.000126963159980256
4.09307996720645e-05,1.96546431883424e-05,4.38458515017906e-05,0.000104431294362198
6.17495964489414e-05,4.42661916506165e-05,5.05457831123218e-05,0.00015656157121188
5.22378958544901e-05,0.000124035195521954,0.000100893934302124,0.000277167025678568
0.000499450342153377,0.0013252149785083,0.00208325261315414,0.00390791793381581
2.66123349652162e-05,2.52798839219659e-05,2.80817982618374e-05,7.99740171490195e-05
6.01474179297615e-05,5.48850442679416e-05,4.77906227780101e-05,0.000162823084975713
0.000280637788264565,0.000699121754885747,0.00107224442551755,0.00205200396866787
0.000236661250103705,0.000247717643721885,0.000338358648321739,0.000822737542147329
9.38477777501386e-06,8.41778451618964e-06,1.36526137863161e-05,3.14551760775196e-05
4.03650630753818e-06,3.70132381172503e-06,9.39657997583399e-06,1.71344100950972e-05
7.93731096554504e-06,7.39876730186492e-06,1.08653815045449e-05,2.62014597719549e-05
3.61468082626964e-06,3.35923374959686e-06,8.6061141606387e-06,1.55800287365052e-05
8.63717411296604e-06,7.04663587231207e-06,1.39912179998438e-05,2.96750279851219e-05
3.38875433732179e-05,1.90041392786266e-05,2.04660598422899e-05,7.33577424941345e-05
2.41599026060624e-05,2.37737297877872e-05,1.83731654902375e-05,6.6306797884087e-05
3.09273984769536e-05,2.27073742149928e-05,1.93821735929014e-05,7.30169462848478e-05
1.40503665362159e-05,1.39591319417846e-05,1.20624315847898e-05,4.00719300627903e-05
1.48187883712156e-05,1.08871919981622e-05,1.21649788617629e-05,3.78709592311407e-05
1.33712489339776e-05,1.2030310911754e-05,1.29739310212533e-05,3.83754908669849e-05
1.51815730501121e-05,9.21088825034942e-06,1.26074303451584e-05,3.699989164562e-05
1.27296291849647e-05,1.1944286629386e-05,1.26126777612848e-05,3.72865935756355e-05
6.22269015019299e-06,5.95671132716717e-06,8.92769685173093e-06,2.11070983290911e-05
2.24471737552964e-05,1.55056641261905e-05,1.57369504046816e-05,5.36897882861686e-05
1.93328699021067e-05,1.44339437079037e-05,1.67883685190644e-05,5.05551821290748e-05
1.15899867977501e-05,9.55017084158805e-06,1.08639909154311e-05,3.20041485547692e-05
1.37825459791757e-05,1.07429493899996e-05,1.21501170751676e-05,3.66756124443429e-05
1.10058243006652e-05,7.63678527660911e-06,1.20055351408059e-05,3.06481447180803e-05
9.28263459582907e-06,9.49577225171676e-06,1.1150880650952e-05,2.99292874984978e-05
5.30033910280911e-06,3.94493780757745e-06,8.43150357446696e-06,1.76767804848535e-05
5.90201379459113e-06,3.71636945384552e-06,8.07969263432792e-06,1.76980758827646e-05
8.5645043053421e-06,7.43815933296432e-06,1.05491061346346e-05,2.6551769772941e-05
1.12259966105776e-05,9.75275649686879e-06,1.0949856071402e-05,3.19286091788484e-05
1.82188760873659e-05,1.62138305533423e-05,1.53692432223367e-05,4.98019498630449e-05
1.43764736496855e-05,1.18784732763285e-05,1.37951576514853e-05,4.00501045774993e-05
1.21024759020946e-05,1.03254020805259e-05,1.28234331996671e-05,3.52513111822875e-05
1.3948982115257e-05,1.45278026089168e-05,1.40019749800486e-05,4.24787597042223e-05
1.60656023526901e-05,1.15212403778758e-05,1.49818155476521e-05,4.25686582782179e-05
1.67803749580736e-05,1.04275152806096e-05,1.29870084109077e-05,4.01948986495909e-05
1.48174656408367e-05,1.48037003778502e-05,1.38518572595855e-05,4.34730232782724e-05
1.4931107566929e-05,1.57597483670903e-05,1.58254168973895e-05,4.65162728314088e-05
1.84243795360561e-05,1.93703382780158e-05,1.50489695436697e-05,5.28436873577417e-05
2.19637984091375e-05,1.90883773923347e-05,1.53709316304373e-05,5.64231074319094e-05
1.56715758408932e-05,1.66897055041321e-05,1.36043467849769e-05,4.59656281300022e-05
2.32615370574043e-05,1.61225892471781e-05,2.05444475109741e-05,5.99285738155564e-05
2.26485755615227e-05,1.69348794855465e-05,1.78626677462517e-05,5.74461227933209e-05
1.46431186909689e-05,2.02458782183059e-05,1.94799792866604e-05,5.43689761959352e-05
1.65563622095336e-05,1.78762110086449e-05,1.791192668358e-05,5.23444999017586e-05
2.10151015298201e-05,1.63372672888292e-05,1.67385793030009e-05,5.40909481216502e-05
8.09399544940672e-05,6.16327723662883e-05,4.09769416117595e-05,0.000183549668472115
5.09195794357982e-05,2.68244751037107e-05,2.105419144671e-05,9.87982459862188e-05
3.28660660036904e-06,3.36191063152578e-06,8.02533214479578e-06,1.46738493766906e-05
1.20639010902669e-05,1.11635606870886e-05,1.20503633728822e-05,3.52778251502376e-05
2.24197111624586e-05,1.74461423583661e-05,1.76774228901725e-05,5.75432764109972e-05
1.45061618022794e-05,8.20522073007868e-06,1.15868200261865e-05,3.42982025585446e-05
3.19949665605607e-06,2.86158601161054e-06,8.1416857188043e-06,1.42027683864709e-05
2.50869030818541e-05,1.37012647962142e-05,1.20024954443478e-05,5.0790663322416e-05
2.95571847553616e-05,1.44942291354405e-05,1.2414652635899e-05,5.64660665267012e-05
1.94087244914943e-05,1.08921022746598e-05,9.72029781256857e-06,4.00211245787227e-05
3.49440422432555e-06,2.94982907064447e-06,8.02874493980544e-06,1.44729782347755e-05
3.39706861971809e-06,3.01891826904992e-06,7.77605928346845e-06,1.41920461722365e-05
3.37778969940066e-06,2.94786009223095e-06,7.76018244396616e-06,1.40858322355978e-05
3.28558887778612e-06,2.9428661918958e-06,7.59234845597157e-06,1.38208035256535e-05
3.50278717091265e-06,3.16099520222783e-06,8.16181739868332e-06,1.48255997718238e-05
1.5560230452591e-05,2.53758197669903e-05,2.22942017270803e-05,6.32302519466615e-05
4.69695696557658e-06,3.62213865855392e-06,8.12077709764815e-06,1.64398727217786e-05
3.91114573860777e-06,3.40273377454417e-06,8.13595987493434e-06,1.54498393880863e-05
3.22782103618604e-06,2.99159676381512e-06,8.13545271050841e-06,1.43548705105096e-05
3.96845986032445e-06,3.449637525048e-06,8.15379807066355e-06,1.5571895456036e-05
3.84224892516316e-06,3.45458549644045e-06,7.987635458004e-06,1.52844698796076e-05
3.56497596001747e-06,3.34178535447832e-06,8.05797737424359e-06,1.49647386887394e-05
4.37162336937515e-06,3.91292197655165e-06,9.77949556585055e-06,1.80640409117773e-05
4.75021740731817e-06,3.58352210844574e-06,9.60877087584658e-06,1.79425103916105e-05
4.77236057064823e-06,4.65996150734491e-06,1.0801249995439e-05,2.02335720734321e-05
1.00119109765231e-05,7.48019054006821e-06,1.39775717803557e-05,3.1469673296947e-05
5.22206623719848e-06,3.87985128946017e-06,9.50638643550348e-06,1.86083039621621e-05
5.07572154305313e-06,5.09340278654878e-06,1.00774187465884e-05,2.02465430761903e-05
1.40715238067367e-05,9.82477022338922e-06,1.6567833687042e-05,4.04641277171679e-05
1.27073832168765e-05,7.28029051423533e-06,1.49670644551143e-05,3.49547381862262e-05
3.18260441328265e-06,2.87626701311503e-06,7.49285990098966e-06,1.35517313273873e-05
3.40942369526799e-06,3.38160667331213e-06,8.07928006543327e-06,1.48703104340134e-05
4.13589569372912e-05,1.58743837263302e-05,1.62632817108673e-05,7.34966223744887e-05
4.12056762210487e-05,3.41928503463509e-05,3.53483068561264e-05,0.000110746833423526
3.09749021511587e-05,1.84289875977608e-05,2.45431271270795e-05,7.3947016875999e-05
8.08618631432223e-05,3.69002797739782e-05,3.01142980279543e-05,0.000147876440945155
2.17996114431238e-05,1.16945150145493e-05,1.42721896756715e-05,4.77663161333446e-05
2.24206733018911e-05,8.9246845594584e-06,1.63067596441639e-05,4.76521175055134e-05
4.0073605379941e-05,1.64010399423275e-05,1.97652766711359e-05,7.62399219934044e-05
1.14771634785865e-05,4.54567335899588e-06,1.04508882382517e-05,2.64737250758341e-05
3.48316483458303e-06,3.86072667016698e-06,1.04228718461472e-05,1.77667633508972e-05
3.33350128389168e-06,2.96456406499766e-06,7.51313736834155e-06,1.38112027172309e-05
9.14534259679583e-06,4.38649536951607e-06,1.11504853128253e-05,2.46823232791372e-05
3.73273585681356e-06,3.17377014441206e-06,8.12058074971603e-06,1.50270867509416e-05
3.2523009309995e-06,3.09017128424838e-06,8.36519140390052e-06,1.47076636191484e-05
4.41633949609944e-06,4.49980462794571e-06,9.98447644036592e-06,1.89006205644111e-05
3.35567675193657e-06,3.02826079633791e-06,7.8931525012995e-06,1.4277090049574e-05
1.17095637833238e-05,4.24106166634256e-06,9.79576015931018e-06,2.57463856089765e-05
3.52937784497713e-06,3.69895016546823e-06,9.9568370003758e-06,1.71851650108212e-05
4.01536658292491e-05,1.76243647264848e-05,3.30611639142614e-05,9.08391944699953e-05
4.30867745656153e-05,1.92983451163776e-05,2.60627994424275e-05,8.84479191244204e-05
3.57676589426666e-06,4.23290494127686e-06,1.20287547367559e-05,1.98384255722995e-05
7.2919585437774e-06,3.59887713078018e-06,8.94387948643776e-06,1.98347151609953e-05
3.23669769980399e-06,2.94515573058773e-06,8.00497526112539e-06,1.41868286915171e-05
6.43342782670137e-06,5.05089085386755e-06,1.05533771349259e-05,2.20376958154948e-05
3.07103626813751e-06,2.8691431172988e-06,7.98098254187617e-06,1.39211619273125e-05
3.1188398760295e-06,3.06857726057746e-06,8.48509592762359e-06,1.46725130642306e-05
3.29420454260394e-06,3.43589832249193e-06,8.91986563338555e-06,1.56499684984814e-05
3.28415703796886e-06,3.10632016459566e-06,7.75211462801378e-06,1.41425918305783e-05
3.21831785488099e-06,3.10226135324333e-06,8.77821149026595e-06,1.50987906983903e-05
3.1845195790216e-06,2.9473062781634e-06,7.85062878458954e-06,1.39824546417745e-05
3.22241259074748e-06,2.92054530737845e-06,8.28550550865996e-06,1.44284634067859e-05
3.20283245329143e-06,2.98005115765438e-06,7.90510876834504e-06,1.40879923792908e-05
3.11938787263478e-06,3.00184567629264e-06,7.83983629300978e-06,1.39610698419372e-05
3.13869579414278e-06,2.8875198280824e-06,7.49744528305218e-06,1.35236609052774e-05
3.0753815917401e-06,2.91298952355072e-06,7.77423395901847e-06,1.37626050743093e-05
3.1438691949501e-06,3.08240862580068e-06,7.9787086553137e-06,1.42049864760645e-05
3.17933966216775e-06,2.93603439015715e-06,8.03097960217767e-06,1.41463536545026e-05
3.10366604914526e-06,2.86158351242646e-06,7.76153898582939e-06,1.37267885474011e-05
3.08618916514169e-06,3.10983421668096e-06,7.89596601718765e-06,1.40919893990103e-05
3.02867459498564e-06,2.95852959484844e-06,7.25075071027263e-06,1.32379549001067e-05
1.64785791369718e-05,1.26839785561517e-05,2.04635877283985e-05,4.9626145421522e-05
2.59170379547969e-05,1.58279726137843e-05,2.06459145241262e-05,6.23909250927075e-05
7.62140896838289e-06,5.50797320477473e-06,1.27198023012583e-05,2.5849184474416e-05
6.79575259929971e-06,4.62716917619734e-06,1.18429942717255e-05,2.32659160472225e-05
3.314836546763e-06,2.95546360592279e-06,8.12285720337048e-06,1.43931573560563e-05
3.32133591295805e-06,2.98676336448914e-06,7.86221805086717e-06,1.41703173283144e-05
3.32297098704733e-06,3.10786624476242e-06,8.12135816236158e-06,1.45521953941713e-05
3.21024043040052e-06,3.09043490090018e-06,8.95513240596651e-06,1.52558077372672e-05
3.45774899933708e-06,3.32245032271111e-06,7.88946827568533e-06,1.46696675977335e-05
5.36760005035088e-06,5.52378108397791e-06,1.02460260475697e-05,2.11374071818985e-05
3.78149984921513e-06,3.63232249511435e-06,8.03248821039465e-06,1.54463105547241e-05
3.56312188223985e-06,3.31721124737338e-06,7.57218500618937e-06,1.44525181358026e-05
1.02208337443964e-05,8.67737588622708e-06,1.82345867768046e-05,3.7132796407428e-05
8.92662819767154e-06,6.16863040023818e-06,1.24771110750053e-05,2.75723696729151e-05
3.93359458611545e-06,3.53085710506126e-06,7.95117200319613e-06,1.54156236943728e-05
4.07037958473969e-06,3.60800501961257e-06,8.65440022033969e-06,1.6332784824692e-05
3.84699656039054e-06,3.80301409957548e-06,9.4669180810343e-06,1.71169287410003e-05
3.3009804101849e-06,3.18833609618998e-06,8.41323299759221e-06,1.49025495039671e-05
2.97770636665035e-06,2.822368800214e-06,7.54874214165439e-06,1.33488173085187e-05
4.24504039611112e-06,3.91556763446801e-06,8.72526706066342e-06,1.68858750912426e-05
3.75996162842266e-06,3.86435017574891e-06,8.43670914444626e-06,1.60610209486178e-05
3.13541810526151e-06,2.97801755910851e-06,7.78883251375974e-06,1.39022681781298e-05
3.75241108282925e-06,4.03611652621589e-06,1.01205774454532e-05,1.79091050544983e-05
3.42171971638644e-06,3.21462965945154e-06,8.92820296311658e-06,1.55645523389546e-05
4.28779585119016e-06,4.1215437078131e-06,8.27795293192742e-06,1.66872924909307e-05
5.8763060015005e-06,3.58015446952279e-06,9.4854354294906e-06,1.89418959005139e-05
5.76232904847533e-06,5.07261493361327e-06,1.12149300704295e-05,2.20498740525181e-05
4.7714881670728e-06,5.0754268833434e-06,1.02739440777232e-05,2.01208591281394e-05
8.26261054896701e-06,7.55487232191899e-06,1.16545642427259e-05,2.74720471136119e-05
3.77052509314185e-06,3.71488592237713e-06,7.77303810296556e-06,1.52584491184845e-05
3.01213057671415e-06,2.78184667142678e-06,7.44674233023642e-06,1.32407195783774e-05
3.32859287600505e-06,3.20980831729325e-06,7.90292762448489e-06,1.44413288177832e-05
1.47280603164447e-05,8.87980067523796e-06,1.25443923226912e-05,3.61522533143738e-05
7.30138950512222e-06,7.20451833727559e-06,1.2669055496041e-05,2.71749633384388e-05
3.17405624118315e-06,2.91348439799248e-06,7.47231814355578e-06,1.35598587827314e-05
3.18174905259639e-06,2.92477867739097e-06,7.89754259315903e-06,1.40040703231464e-05
3.95166569647342e-06,3.31850703238975e-06,7.77048009143054e-06,1.50406528202937e-05
9.63955213572198e-06,8.7943066747659e-06,1.48515988892831e-05,3.3285457699771e-05
4.53409094729613e-06,3.99354997928298e-06,9.99734175582721e-06,1.85249826824063e-05
1.00378717399269e-05,8.29448992446595e-06,1.16386399663799e-05,2.99710016307728e-05
7.31962548436337e-06,4.70798674742916e-06,8.70733484717469e-06,2.07349470789672e-05
3.17579503129444e-06,3.21131369845462e-06,8.04950521752115e-06,1.44366139472702e-05
1.12411079125914e-05,1.45121721826199e-05,1.25877877977335e-05,3.83410678929448e-05
1.12511579972308e-05,1.34139600564989e-05,1.22050203495856e-05,3.68701384033153e-05
3.95293696528924e-06,3.27117865933274e-06,8.88595870349715e-06,1.61100743281191e-05
3.08730627316033e-06,3.24921189051239e-06,8.71590021594719e-06,1.50524183796199e-05
2.91376417182361e-06,2.80784882515733e-06,6.87054614059886e-06,1.25921591375798e-05
3.0501056269182e-06,2.99440030914286e-06,7.56923894152654e-06,1.36137448775876e-05
3.05377169186612e-06,2.89733277330483e-06,7.03775412235231e-06,1.29888585875233e-05
3.17692556402011e-05,4.40878266993919e-05,3.51183079122475e-05,0.00011097539025184
1.04589786394088e-05,1.33350670629968e-05,1.77713017133736e-05,4.15653474157792e-05
2.04266206247576e-05,1.47069114152201e-05,1.68567108157372e-05,5.19902428557149e-05
1.78407256533562e-05,1.25888317526089e-05,1.73332254128064e-05,4.77627828187715e-05
8.73947508770117e-06,4.98968319923871e-06,1.18982314568651e-05,2.5627389743805e-05
1.36149788220243e-05,1.21707963241448e-05,1.70823899811647e-05,4.28681651273339e-05
0.000123490868710378,0.000133464556133507,5.98739477823405e-05,0.000316829372626225
0.00143639203440566,0.00231334010196556,0.00542935965093763,0.00917909178730886
0.001084598665019,0.0031155930228975,0.00441814360663583,0.00861833529455233
3.68623286138954e-05,3.43906388487174e-05,8.43961054291877e-05,0.000155649072891801
7.71683149040016e-06,7.10023620063508e-06,1.45197827085323e-05,2.93368503995675e-05
4.97440706805737e-06,4.64463311453696e-06,1.38110632091818e-05,2.34301033917762e-05
3.84692117948919e-06,3.83315988056719e-06,1.12256704529977e-05,1.8905751513054e-05
3.68524477654958e-06,3.45958959023214e-06,1.03485775252183e-05,1.7493411892e-05
3.66426430409467e-06,3.52623350351394e-06,9.67689879129267e-06,1.68673965989013e-05
3.5273023330986e-06,3.64438382986498e-06,1.01829249985694e-05,1.7354611161533e-05
8.05264559668947e-06,7.32670714991062e-06,1.56710209077063e-05,3.10503736543064e-05
6.2636334214436e-06,7.08434704263701e-06,1.40458872858313e-05,2.73938677499119e-05
3.21092814662595e-06,3.13394141207685e-06,8.85723642177963e-06,1.52021059804824e-05
6.59737764298893e-06,5.43389393662515e-06,1.24892034043549e-05,2.4520474983969e-05
3.76777314549551e-06,3.38311307125987e-06,8.87440104733173e-06,1.60252872640871e-05
1.18421377093661e-05,1.85257022312559e-05,1.69705324888943e-05,4.73383724295163e-05
5.74771918239689e-06,5.00685668073764e-06,1.07267084313619e-05,2.14812842944965e-05
8.94695767235944e-06,4.83306972907495e-06,1.08566674663408e-05,2.46366948677752e-05
1.90040183742439e-05,1.01172568060819e-05,2.28686034137568e-05,5.19898785940826e-05
3.77464608697703e-06,3.5746058608234e-06,9.66552188990857e-06,1.7014773837709e-05
3.8238235178026e-06,3.45878460199003e-06,8.97555851144148e-06,1.62581666312341e-05
1.2252047457559e-05,8.72238882176127e-06,1.57004348638359e-05,3.66748711431562e-05
3.61266681976282e-06,3.2779639023764e-06,9.04376734055233e-06,1.59343980626916e-05
6.26867403354245e-06,6.80786608289823e-06,9.64318109924979e-06,2.27197212156905e-05
4.78400271453376e-06,4.7713278166576e-06,1.04765787042263e-05,2.00319092354177e-05
3.15616296033218e-06,3.14202064080085e-06,8.65453390604966e-06,1.49527175071827e-05
3.21254356495825e-06,2.89099374226644e-06,8.25776752201421e-06,1.43613048292389e-05
3.29848134611089e-06,2.99214965722849e-06,8.53408368982814e-06,1.48247146931675e-05
3.15596339928492e-06,2.88700563787429e-06,8.54600095439165e-06,1.45889699915509e-05
4.34005782839471e-06,6.30940486624495e-06,1.15316113650138e-05,2.21810740596534e-05
3.34768761382652e-06,3.12296252711552e-06,9.33577252975864e-06,1.58064226707007e-05
4.06247102161894e-06,4.33707927307397e-06,1.045139697129e-05,1.88509472659829e-05
3.4166501808182e-06,3.33810039659988e-06,1.02264906947936e-05,1.69812412722117e-05
3.34051553679597e-06,3.21191463863417e-06,9.36095160786392e-06,1.59133817832941e-05
3.52443567588802e-06,3.06339826501939e-06,8.97913046570568e-06,1.55669644066131e-05
3.2795788804317e-06,3.01813114647162e-06,8.22836113502972e-06,1.4526071161933e-05
3.17144924683658e-06,2.83995675673425e-06,8.65192734313353e-06,1.46633333467044e-05
3.27655930387573e-06,3.11062386997672e-06,9.39959283569445e-06,1.57867760095469e-05
3.15285109646779e-06,2.87624577023153e-06,8.31903611561317e-06,1.43481329823125e-05
9.14642156287205e-06,9.61202694989447e-06,1.49777237145468e-05,3.37361722273133e-05
3.30038138436758e-06,3.37559776775719e-06,8.98544952970409e-06,1.56614286818289e-05
3.10409843936637e-06,2.84984252022063e-06,8.03542724570423e-06,1.39893682052912e-05
3.15048069989928e-06,3.04773069422528e-06,9.14314879807135e-06,1.53413601921959e-05
3.71894240406791e-06,4.20100718862083e-06,1.24293240604725e-05,2.03492736531613e-05
3.59174576921663e-06,3.75424397719714e-06,9.70719639472051e-06,1.70531861411343e-05
3.35612990078108e-06,3.21944760496354e-06,9.48330616962802e-06,1.60588836753726e-05
3.19109566373518e-06,2.8742846559102e-06,8.30406774977424e-06,1.43694480694196e-05
3.4543169054283e-06,3.40394029989015e-06,1.01450124919925e-05,1.7003269697311e-05
3.29672506543607e-06,3.07209411345171e-06,8.75079704192223e-06,1.511961622081e-05
3.18616319768907e-06,2.76736814249348e-06,7.99728104401e-06,1.39508123841926e-05
3.14009765499842e-06,2.94831789330148e-06,8.69832752091318e-06,1.47867430692131e-05
3.18006940759947e-06,2.97647966591567e-06,8.43229818737864e-06,1.45888472608938e-05
3.37401465456457e-06,3.07008219678143e-06,9.1412236131945e-06,1.55853204645405e-05
3.43639780903768e-06,3.38973464984781e-06,1.04075726141468e-05,1.72337050730323e-05
3.34974992225425e-06,3.58634035064234e-06,1.09406554220088e-05,1.78767456949053e-05
3.87685546727981e-06,3.25500175335827e-06,9.88128685178104e-06,1.70131440724191e-05
3.32717231557983e-06,3.37195784651714e-06,1.00315392076522e-05,1.67306693697492e-05
3.33280885702085e-06,3.36774256448263e-06,1.00528378349452e-05,1.67533892564487e-05
3.49279308630697e-06,3.31747734748786e-06,9.69679784544818e-06,1.6507068279243e-05
6.67756138829529e-06,8.99579926925087e-06,1.28268615677202e-05,2.85002222252664e-05
3.42839015035026e-06,3.11668396316615e-06,9.89680696873372e-06,1.64418810822501e-05
3.97714533576088e-05,2.00489638027816e-05,3.11138300531451e-05,9.09342472135355e-05
4.75118761892351e-06,3.98207279329481e-06,9.05829034861547e-06,1.77915507608338e-05
4.92333131249408e-06,4.57677472290146e-06,9.54103044251762e-06,1.90411364779132e-05
3.48302535621306e-06,3.36164936693792e-06,9.62987212401002e-06,1.6474546847161e-05
8.47900081991268e-06,6.34663766954379e-06,1.19693486600537e-05,2.67949871495101e-05
1.22151885179347e-05,5.85431449218891e-06,1.06098542854129e-05,2.86793572955366e-05
2.66807638221746e-05,1.9165502155367e-05,1.60963001736293e-05,6.19425661511709e-05
1.49985770643964e-05,7.11168421302966e-06,1.55742378814959e-05,3.76844991589219e-05
8.96905346854109e-06,5.16717312827516e-06,1.13764471764921e-05,2.55126737733084e-05
4.18749599735238e-06,3.90699904247892e-06,1.0007260940265e-05,1.81017559800963e-05
8.20068483145303e-06,4.90474312136638e-06,1.06694776735027e-05,2.37749056263221e-05
1.22657125511092e-05,5.30873151186362e-06,1.6342152640369e-05,3.39165967033418e-05
3.44006034141999e-06,3.16783711178469e-06,8.6171144194491e-06,1.52250118726538e-05
9.63825541310841e-06,6.21457297968146e-06,1.39346453237095e-05,2.97874737164994e-05
5.48001271530803e-06,4.31891931137865e-06,1.0873326518387e-05,2.06722585450737e-05
3.19660174778666e-06,2.70412240706408e-06,8.22280373914864e-06,1.41235278939994e-05
3.07419967083637e-06,2.91907622521314e-06,8.08905808057799e-06,1.40823339766275e-05
6.60455701573334e-06,1.47535777324555e-05,1.42011791381067e-05,3.55593138862956e-05
1.06769966650186e-05,2.59618206736983e-05,1.95610976029146e-05,5.61999149416316e-05
5.72415141695119e-06,1.6635243161188e-05,1.33243278261937e-05,3.56837224043329e-05
6.90793811380979e-06,1.70083801690992e-05,1.53745537851273e-05,3.92908720680363e-05
5.42664838973161e-06,1.34358324654112e-05,1.18029322933849e-05,3.06654131485277e-05
4.01052086778037e-06,5.24312890520942e-06,1.10922442584025e-05,2.03458940313923e-05
1.95045699589421e-05,2.15020100165627e-05,1.97646684936428e-05,6.07712484691477e-05
3.50185217382314e-05,2.17089321978346e-05,2.78134315831632e-05,8.45408855192291e-05
2.47508075291904e-05,2.09843509838852e-05,2.35040569430752e-05,6.92392154561508e-05
9.42480380982095e-06,1.10176943298954e-05,1.68444034261392e-05,3.72869015658556e-05
7.34119611441912e-06,6.08485394932698e-06,1.3183106288451e-05,2.66091563521971e-05
7.63262908593723e-06,6.4823778404487e-06,1.33751857438478e-05,2.74901926702338e-05
1.32668852587383e-05,7.68260698700642e-06,1.67966898754876e-05,3.77461821212323e-05
3.96598258673748e-05,1.20336653123123e-05,2.98818857451571e-05,8.15753769248442e-05
2.93413835849817e-05,1.00775065485949e-05,1.94330865321712e-05,5.88519766657478e-05
2.54172219531133e-05,5.697635051317e-06,2.69468811820989e-05,5.80617381865292e-05
3.18077695119793e-05,7.11108172930682e-06,2.87588856353573e-05,6.76777368766433e-05
1.42434103991048e-05,4.11308965879441e-06,1.67941849715762e-05,3.51506850294754e-05
1.98492458558021e-05,5.13065819381639e-06,2.73089369687277e-05,5.22888410183462e-05
1.37874044307455e-05,5.01612360577005e-06,2.1940746964849e-05,4.07442750013646e-05
1.61534871190924e-05,4.1786240534959e-06,2.26622086713829e-05,4.29943198439713e-05
4.37207567807434e-06,3.60732885032286e-06,9.90513898659607e-06,1.78845435149933e-05
1.84586360283679e-05,5.43694244104454e-06,2.25221789123216e-05,4.64177573817341e-05
2.94141983161532e-05,4.66228811613522e-06,3.41816838548283e-05,6.82581702871168e-05
3.03734885337715e-05,4.91342273751831e-06,3.51024272389975e-05,7.03893385102873e-05
3.40356175319112e-05,5.55984534104424e-06,3.7759409680121e-05,7.73548725530764e-05
2.14532398320586e-05,4.88722539839488e-06,2.45542316377368e-05,5.08946968681903e-05
3.59307056450485e-05,6.04952261076431e-06,3.03266806680294e-05,7.23069089238422e-05
2.14131526514683e-05,9.18844800616855e-06,2.62366485220426e-05,5.68382491796795e-05
6.61424257964761e-06,9.06460876338632e-06,1.75563083719562e-05,3.32351597149901e-05
6.2412122035732e-06,1.15974844456433e-05,1.73896976801398e-05,3.52283943293563e-05
4.2966419043381e-06,4.15852271477682e-06,1.14847679653408e-05,1.99399325844558e-05
3.73669435349534e-06,3.20739061949381e-06,8.32963188470123e-06,1.52737168576904e-05
4.19962130256575e-06,4.24583875616791e-06,1.18170113033125e-05,2.02624713620461e-05
3.34436588810362e-06,3.58204810907701e-06,8.87644338471808e-06,1.58028573818987e-05
3.45460136545476e-06,3.46224771306574e-06,1.01978690277445e-05,1.7114718106265e-05
3.36993512857778e-06,3.70909396315056e-06,1.08352721763335e-05,1.79143012680619e-05
3.11049332608999e-06,2.89142043401503e-06,8.53141048625467e-06,1.45333242463597e-05
3.13224784239538e-06,3.19834902177841e-06,8.95049330143469e-06,1.52810901656085e-05
4.97794043002685e-05,1.50411762311503e-05,2.38109988608544e-05,8.86315793922732e-05
8.1896824111782e-05,1.24614954232934e-05,3.7825345020082e-05,0.000132183664555158
5.30208488394016e-05,1.93733829352441e-05,3.18880194522605e-05,0.000104282251226906
2.75145900230592e-05,2.09470276906605e-05,2.11581973442811e-05,6.96198150580008e-05
4.5313832617504e-06,3.49495163765208e-06,8.916580488761e-06,1.69429153881635e-05
8.86495709231798e-06,5.2914261541041e-06,1.09254169240919e-05,2.5081800170514e-05
3.26299409534064e-06,2.98566787873393e-06,8.74232644606563e-06,1.49909884201402e-05
3.20239754383547e-06,3.30028886192052e-06,8.63556845483333e-06,1.51382548605893e-05
3.28881002324875e-06,2.87207973372156e-06,8.35582847906947e-06,1.45167182360398e-05
8.73199948883218e-06,5.22970754300851e-06,1.2149038825731e-05,2.61107458575717e-05
3.56885394478159e-06,3.3434950286817e-06,9.44812636097685e-06,1.63604753344401e-05
3.24964158946527e-06,2.9508015212015e-06,8.54330584559618e-06,1.47437489562629e-05
3.45566592298411e-06,3.24378785491472e-06,8.93237362232708e-06,1.56318274002259e-05
3.45251341039695e-06,3.42329477672013e-06,1.00010170615802e-05,1.68768252486973e-05
3.23149906515771e-06,2.9663102328091e-06,8.35225697778796e-06,1.45500662757548e-05
3.08205797992746e-06,2.9654209519083e-06,7.89749117312851e-06,1.39449701049643e-05
1.82221211295528e-05,9.28880794085772e-06,2.05797159054674e-05,4.8090644975878e-05
3.30948921853915e-06,2.91954541377559e-06,8.8017531792401e-06,1.50307878115548e-05
3.07392456438483e-06,2.95651257390577e-06,8.30719925714301e-06,1.43376363954336e-05
5.85201459115545e-06,5.64495168880894e-06,1.13649494111763e-05,2.28619156911407e-05
3.72930498847453e-06,3.54877648694749e-06,9.83174126167273e-06,1.71098227370947e-05
3.39139964457854e-06,3.20517837654936e-06,9.22597254864805e-06,1.5822550569776e-05
3.93543293015153e-06,3.50139319351729e-06,8.57841267232505e-06,1.60152387959939e-05
3.58182098491789e-06,3.23253506012492e-06,8.62068549204346e-06,1.54350415370863e-05
3.78314863127919e-06,3.23568461204305e-06,7.97411753143925e-06,1.49929507747615e-05
3.38615082959366e-06,3.10991310393254e-06,8.16873845716229e-06,1.46648023906885e-05
3.36055529575254e-06,2.86767639949159e-06,8.00598313816726e-06,1.42342148334114e-05
3.5701455577193e-06,3.38149460250467e-06,9.05002228663267e-06,1.60016624468566e-05
3.07612531409305e-06,2.87930730560357e-06,8.2782042508394e-06,1.4233636870536e-05
9.36123997151638e-06,5.052406077227e-06,1.27768809751314e-05,2.71905270238747e-05
9.51192020619836e-06,9.77702350968678e-06,1.41327996976608e-05,3.3421743413546e-05
4.41680628044672e-06,3.63987291735128e-06,9.41762628963427e-06,1.74743054874323e-05
3.44062215090222e-06,3.09393390220806e-06,8.75150565574997e-06,1.52860617088602e-05
3.72799838478699e-06,3.34777012978341e-06,8.7923539385017e-06,1.58681224530721e-05
3.17888925854262e-06,2.88922918663523e-06,8.1943193167447e-06,1.42624377619226e-05
5.29627983288205e-06,4.99897720788014e-06,9.52504177485144e-06,1.98202988156136e-05
7.60134636745863e-06,6.03063464012535e-06,1.18842162034037e-05,2.55161972109877e-05
3.14023203591119e-06,2.78618174099264e-06,8.42683819703974e-06,1.43532519739436e-05
5.11555682491029e-05,3.80374496637194e-05,4.4250379144648e-05,0.00013344339705747
7.43806490009911e-05,0.000191093537620464,7.90151164410683e-05,0.000344489303062523
3.69292747332499e-06,3.24532009014585e-06,9.80633765946579e-06,1.67445852229366e-05
4.00925676935995e-06,3.11497448636799e-06,9.47486153456319e-06,1.65990927902911e-05
3.56400792153457e-06,3.0539109218665e-06,8.97457044343404e-06,1.55924892868351e-05
3.20904529847973e-06,2.81998140908889e-06,8.36104260443155e-06,1.43900693120002e-05
3.37563911136578e-06,2.84135471225116e-06,7.8365202299557e-06,1.40535140535726e-05
3.13939192992187e-06,2.7999870856906e-06,8.40991391924415e-06,1.43492929348566e-05
6.855670524039e-06,4.80665724856816e-06,1.03797269465683e-05,2.20420547191755e-05
5.85605968803908e-06,3.28624811758227e-06,9.38053200923185e-06,1.85228398148532e-05
3.16996849441034e-06,2.75854395577779e-06,7.89935867383426e-06,1.38278711240224e-05
3.45215210210194e-06,2.81884200952594e-06,7.9538950829224e-06,1.42248891945503e-05
3.30194737235218e-06,2.89494167417087e-06,7.78744279846062e-06,1.39843318449837e-05
3.71601441137597e-06,3.38857407518409e-06,9.24802196170122e-06,1.63526104482613e-05
9.21182403500029e-06,5.92323799698374e-06,1.41630728788504e-05,2.92981349108344e-05
3.86434380432793e-06,3.44382074427362e-06,1.08899299964869e-05,1.81980945450884e-05
3.27195783062576e-06,2.92178022398039e-06,8.29505677840921e-06,1.44887948330154e-05
3.18625315073731e-06,2.9505659728439e-06,8.46034207781053e-06,1.45971612013917e-05
3.36238045003662e-06,3.08950697586076e-06,9.24116236935406e-06,1.56930497952514e-05
1.86199038414151e-05,2.06145804676165e-05,2.92734004040226e-05,6.85078847130542e-05
3.07173201308903e-05,1.75485912293448e-05,3.34102707205076e-05,8.16761820807427e-05
2.29881279884157e-05,1.31845283014682e-05,1.89318253021429e-05,5.51044815920268e-05
2.06348761824096e-05,1.14792828938824e-05,1.1957651554099e-05,4.40718106303911e-05
1.33537167159677e-05,9.89793362734709e-06,1.35442526136974e-05,3.67959029570122e-05
2.96494701067703e-05,2.39293864104258e-05,2.7061468152578e-05,8.06403246697741e-05
0.000257844926291662,0.000289092222750118,0.000262982897453732,0.000809920046495511
0.00112015569930089,0.002642803845708,0.00415970445014699,0.00792266399515589
0.000621079291266225,0.00148579421038805,0.00222438347331153,0.0043312569749658
0.000119590580517701,0.000309361032728282,0.000214335340699606,0.000643286953945589
0.00016277038346851,0.000113540582367123,8.14894826893957e-05,0.000357800448525029
2.12427994085946e-05,2.0935767824447e-05,2.52358006914378e-05,6.74143679244795e-05
4.6120964418116e-06,4.2724309579914e-06,1.05317447895481e-05,1.94162721893511e-05
4.94605634549432e-06,4.48457202570664e-06,1.01973155573143e-05,1.96279439285152e-05
3.14772657049546e-06,3.1978050840764e-06,8.75019284427387e-06,1.50957244988457e-05
4.54302906903289e-06,3.66704665366429e-06,8.57212141115031e-06,1.67821971338475e-05
5.07148236835688e-06,4.01502069814599e-06,9.02812133289405e-06,1.81146243993969e-05
3.54912256478916e-06,3.40684393679663e-06,8.43373992847787e-06,1.53897064300637e-05
3.10070319155292e-06,3.01951012208104e-06,7.57292500116572e-06,1.36931383147997e-05
3.65568221872278e-06,3.44910412277944e-06,7.95874222106431e-06,1.50635285625665e-05
3.28306581758314e-06,3.4379575530059e-06,8.39122981778433e-06,1.51122531883734e-05
3.18309084671971e-06,3.27634477929928e-06,8.01980479227293e-06,1.44792404182919e-05
3.56743818428543e-06,3.46285188023746e-06,8.37096541773761e-06,1.54012554822605e-05
3.09874936404202e-06,3.07413625584786e-06,7.77039862395252e-06,1.39432842438424e-05
3.07021407811126e-06,3.09233917212755e-06,7.99398234670602e-06,1.41565355969448e-05
3.41990443756594e-06,3.44887003557119e-06,8.45967953239131e-06,1.53284540055284e-05
2.89689115363365e-05,2.22981021555029e-05,3.03713866713615e-05,8.16384003632009e-05
1.44065894143343e-05,7.62372169523917e-06,1.27809188980695e-05,3.4811230007643e-05
1.44795906502232e-05,8.51660075578495e-06,1.84388490708857e-05,4.14350404768938e-05
3.78706091222667e-05,1.06905405387308e-05,2.45791213883492e-05,7.31402710493467e-05
1.96335333028769e-05,9.76397685298282e-06,2.31836633782336e-05,5.25811735340933e-05
2.56954333854095e-05,8.86374446561195e-06,1.81514928922637e-05,5.27106707432852e-05
2.62511753979309e-05,1.05618302719182e-05,2.12740343379421e-05,5.80870400077911e-05
0.000509999782049226,0.000724017012326617,0.00163178940198087,0.00286580619635671
0.000273514261382845,0.000830579769514436,0.000978021936047869,0.00208211596694515
0.000239147677971866,0.000723305220324965,0.000303545100363782,0.00126599799866061
2.63413835211019e-05,1.59438435677197e-05,3.32084721504546e-05,7.54936992392762e-05
2.93450860635064e-05,1.84810858841301e-05,2.51124317652459e-05,7.29386037128824e-05
6.95362020383551e-06,4.66056299634999e-06,1.03399779742951e-05,2.19541611744806e-05
2.27409533265217e-05,1.33434017815789e-05,1.51480623074538e-05,5.12324174155544e-05
1.53835218589501e-05,1.13221039348103e-05,1.3161992559927e-05,3.98676183536874e-05
1.29666010957589e-05,5.65577377482759e-06,1.0065898645439e-05,2.86882735160256e-05
1.16527836581386e-05,5.18005860202745e-06,9.27522184580926e-06,2.61080641059753e-05
1.06923753116423e-05,5.62917131637891e-06,9.51316076392181e-06,2.58347073919431e-05
1.1138865153454e-05,7.68738211114511e-06,1.12967307585551e-05,3.01229780231542e-05
2.27172796311361e-05,1.218820264119e-05,2.3942091654958e-05,5.88475739272841e-05
5.09669716790738e-05,4.39750897919469e-05,4.04022783453038e-05,0.000135344339816324
1.83468840340271e-05,1.02082565630096e-05,1.74979307076738e-05,4.60530713047106e-05
1.46830646342324e-05,7.05465956258465e-06,1.00041394489827e-05,3.17418636457997e-05
1.49454799976723e-05,8.07833146583717e-06,1.3752043654116e-05,3.67758551176255e-05
8.84812603815448e-06,2.1858973523184e-05,1.60462634932768e-05,4.67533630546153e-05
7.29597571752086e-06,4.9922900947777e-06,1.12737911748308e-05,2.35620569871294e-05
9.07178116674956e-06,5.38203784313427e-06,1.10404845678056e-05,2.54943035776894e-05
6.24391403847973e-06,4.00872160400917e-06,8.95816677466505e-06,1.9210802417154e-05
7.22591193496997e-06,5.07882316232766e-06,1.02443689961674e-05,2.2549104093465e-05
5.39939570968962e-06,4.39523468995787e-06,9.28322014321796e-06,1.90778505428654e-05
6.37325625245384e-06,5.25641821051055e-06,9.28528298067696e-06,2.09149574436413e-05
5.12899863158875e-06,4.44661335267154e-06,8.92133911793648e-06,1.84969511021968e-05
5.82041114442734e-06,4.13508384944102e-06,9.49804719963744e-06,1.94535421935058e-05
5.29906222467663e-06,4.04219414600417e-06,8.61937891054002e-06,1.79606352812208e-05
9.84173670003663e-06,8.37114565681116e-06,1.16281204166608e-05,2.98410027735086e-05
4.9516510656255e-06,3.76377559761443e-06,8.74269673499007e-06,1.745812339823e-05
7.40754046585643e-06,4.84948507621492e-06,9.24068820409751e-06,2.14977137461689e-05
5.14142088054531e-06,3.40540432880441e-06,8.06046062527305e-06,1.66072858346228e-05
1.00047725474649e-05,7.34240997647312e-06,1.11955758282861e-05,2.85427583522241e-05
9.65049343012963e-06,5.31885628501613e-06,1.01675451842424e-05,2.51368948993882e-05
2.16630059465793e-05,2.18540225843501e-05,1.97252001813809e-05,6.32422287123104e-05
7.80215844188919e-06,1.20858287902672e-05,1.08216809598176e-05,3.0709668191974e-05
1.140943720323e-05,9.35501463591707e-06,1.18660000837963e-05,3.26304519229434e-05
9.42940383117178e-06,6.88420913707656e-06,1.11742608183918e-05,2.74878737866401e-05
7.4266556811482e-06,6.97711389440004e-06,9.46584040890196e-06,2.38696099844502e-05
7.43285662773048e-06,8.83272687544422e-06,1.0195105459447e-05,2.64606889626217e-05
1.21681325706473e-05,9.06656084607422e-06,1.15661658748856e-05,3.28008592916071e-05
1.1233997230587e-05,9.25780879658416e-06,1.03438001059465e-05,3.08356061331177e-05
1.35586536062817e-05,1.09336999807779e-05,1.17765403012372e-05,3.62688938882967e-05
1.95061003253873e-05,2.19447793701521e-05,1.6773913824861e-05,5.82247935204004e-05
7.37109282627081e-06,5.42940747843964e-06,1.05209288938323e-05,2.33214291985428e-05
7.26555311770498e-06,5.22027971827522e-06,1.0862988884653e-05,2.33488217206332e-05
1.10132923096578e-05,8.8963902614576e-06,1.17395358988649e-05,3.16492184699802e-05
7.56891164514741e-06,5.2619341014355e-06,9.60851970943683e-06,2.24393654560197e-05
8.47364311530614e-06,5.78846610830804e-06,9.58402316013655e-06,2.38461323837507e-05
5.61719808265664e-06,4.3444343890949e-06,8.04994079592418e-06,1.80115732676757e-05
5.48615691546393e-06,4.82402719338029e-06,8.76650115173355e-06,1.90766852605778e-05
5.98757981304544e-06,4.90055721521059e-06,8.45295156098436e-06,1.93410885892404e-05
1.02776643091407e-05,1.32548008750848e-05,1.15898287360672e-05,3.51222939202926e-05
5.29035001223546e-06,5.25985048229909e-06,8.2069288885783e-06,1.87571293831128e-05
8.09177577962123e-06,5.14995518172681e-06,8.72135661858428e-06,2.19630875799323e-05
1.03239738740313e-05,6.05465549360384e-06,1.11149485052033e-05,2.74935778728384e-05
1.24553940481226e-05,7.51408934023821e-06,1.14534785650365e-05,3.14229619533973e-05
6.51407651299345e-06,4.19780813515159e-06,8.86021447387156e-06,1.95720991220166e-05
5.10548605319054e-06,3.91157836795613e-06,8.74707373586708e-06,1.77641381570137e-05
5.96247069566596e-06,4.44309863493724e-06,8.52218237748196e-06,1.89277517080852e-05
9.19206289944845e-06,1.26021008276532e-05,1.12882013318745e-05,3.30823650589762e-05
6.21167317998203e-06,3.72836660515609e-06,8.19203784158314e-06,1.81320776267213e-05
9.2768815965545e-06,5.84481795417125e-06,9.66527926894893e-06,2.47869788196747e-05
1.21328381591443e-05,6.96916927459304e-06,1.23000232339345e-05,3.14020306676718e-05
4.78914530185922e-06,3.58887769402358e-06,8.06379257280018e-06,1.6441815568683e-05
5.58965761469452e-06,3.62423557822168e-06,7.98222343157696e-06,1.71961166244932e-05
4.70489651719907e-06,3.47399045528872e-06,7.99541403493568e-06,1.61743010074235e-05
4.19586302786696e-06,3.20115182614073e-06,7.23979029736399e-06,1.46368051513717e-05
5.51777725811523e-06,3.87925681065846e-06,8.12170550855391e-06,1.75187395773276e-05
8.89499320718199e-06,5.95082220050276e-06,1.00346546592835e-05,2.48804700669682e-05
2.9638433889819e-06,2.87892018518011e-06,7.48104916266185e-06,1.33238127368239e-05
1.1126945681512e-05,1.20983931198717e-05,1.07000546346892e-05,3.3925393436073e-05
6.32600965146929e-06,6.66615038502805e-06,9.13205388828081e-06,2.21242139247782e-05
4.64291449852425e-06,4.15283892533841e-06,8.32796966974152e-06,1.71237230936042e-05
3.77077073605399e-06,3.02398779779884e-06,7.56308681185813e-06,1.4357845345711e-05
8.46042841551981e-06,5.53018412885541e-06,9.52926504083682e-06,2.3519877585212e-05
4.94230304709151e-06,5.64686898919586e-06,8.7775710300213e-06,1.93667430663087e-05
4.6308837006195e-06,3.30538054296204e-06,8.15739406291935e-06,1.60936583065009e-05
5.26869748887393e-06,4.05148813749713e-06,7.96449149026996e-06,1.7284677116641e-05
1.19597997650389e-05,1.3512029601631e-05,1.32330426446636e-05,3.87048720113336e-05
5.38319321859717e-06,1.56511711223871e-05,1.06839290427111e-05,3.17182933836954e-05
3.30125551440758e-06,3.95327918613417e-06,7.42671191023165e-06,1.46812466107734e-05
3.27774842666911e-06,3.51348340798184e-06,7.66055873012331e-06,1.44517905647743e-05
5.9683453656305e-06,4.33675236492824e-06,8.89152608976489e-06,1.91966238203236e-05
1.35619591300638e-05,1.4162323806453e-05,1.56960712977565e-05,4.34203542342733e-05
1.33544269168743e-05,1.40918733277217e-05,1.29517951798544e-05,4.03980954244504e-05
6.22048536094949e-06,1.3615149284408e-05,1.23887744688787e-05,3.22244091142362e-05
6.16228406170028e-06,8.41362670750231e-06,9.86230202692131e-06,2.44382127961239e-05
5.60130259148959e-06,5.61618271882209e-06,1.19354824951841e-05,2.31529678054958e-05
8.93752209621682e-06,1.0616004630702e-05,1.09227996905698e-05,3.04763264174887e-05
4.61845510242993e-06,3.31519921679353e-06,8.20969709911451e-06,1.6143351418338e-05
5.21867555723679e-06,5.43640957019304e-06,1.04491699161107e-05,2.11042550435405e-05
5.83953341784012e-06,4.63881311098927e-06,1.08802515164751e-05,2.13585980453045e-05
5.94563204433519e-06,5.11887759645065e-06,1.09407796519753e-05,2.20052892927611e-05
5.68968111176061e-06,5.2907577486511e-06,1.1519347416233e-05,2.24997862766448e-05
7.80341867599927e-06,6.42959602417906e-06,1.33425704297592e-05,2.75755851299376e-05
1.37853607577898e-05,1.17048323810317e-05,1.49935940865725e-05,4.04837872253941e-05
1.13129948188967e-05,1.43264113076821e-05,1.58450036415012e-05,4.148440976808e-05
1.35905804940168e-05,1.07683082900418e-05,1.73403690928323e-05,4.16992578768909e-05
9.55751401246517e-06,9.49104200146675e-06,1.19027438025011e-05,3.09512998164331e-05
1.96577733322952e-05,1.37154433917874e-05,2.08560524286887e-05,5.42292691527713e-05
5.49019420906343e-06,9.21619541135002e-06,1.08470402777444e-05,2.55534298981579e-05
1.65121220950774e-05,1.82570241488812e-05,2.23184868659582e-05,5.70876331099168e-05
9.08724725384585e-06,9.03851946312096e-06,1.38495074328383e-05,3.19752741498051e-05
1.463475470545e-05,1.18896572576863e-05,1.78361781930608e-05,4.43605901561971e-05
1.75511496262522e-05,2.01323949204257e-05,2.13823414485119e-05,5.90658859951899e-05
9.84362411594755e-06,6.17958018224838e-06,1.21628161701991e-05,2.8186020468395e-05
6.2113203833133e-06,5.29452754284394e-06,9.98941028258883e-06,2.14952582087461e-05
7.09604163770874e-06,4.77706467111817e-06,9.2817320233919e-06,2.11548383322188e-05
6.24563252952921e-06,4.4207287874054e-06,9.63289966170986e-06,2.02992609786445e-05
1.75320323407204e-05,1.73722841344823e-05,1.93331273452078e-05,5.42374438204104e-05
1.66491158683859e-05,1.09953693911614e-05,2.55864932199822e-05,5.32309784795295e-05
2.78982743954939e-05,1.76363300607229e-05,4.62535891607333e-05,9.17881936169502e-05
1.9973000766094e-05,1.00943601316741e-05,2.31210451834146e-05,5.31884060811827e-05
1.43106197216959e-05,6.16005910143372e-06,2.06466818117884e-05,4.1117360634918e-05
1.67143619596427e-05,6.74774252983196e-06,2.28203206003364e-05,4.62824250898111e-05
1.89468476124344e-05,7.49928124965561e-06,2.26221631808145e-05,4.90682920429045e-05
1.48295554540732e-05,7.42711114415266e-06,2.20988270426842e-05,4.435549364091e-05
2.11399937974819e-05,1.05458073027316e-05,2.99367093372277e-05,6.16225104374412e-05
2.89280364906883e-05,1.12488553793821e-05,3.8376733327111e-05,7.85536251971815e-05
3.76161942011782e-05,1.55474172375032e-05,5.17154840767804e-05,0.000104879095515462
2.7919606294849e-05,1.09040843533689e-05,3.81584115656634e-05,7.69821022138814e-05
3.07648433693751e-05,1.1742682373232e-05,4.61876356285992e-05,8.86951613712063e-05
3.07192493034451e-05,9.38681536224545e-06,4.65126932325859e-05,8.66187578982764e-05
3.07932805847742e-05,1.13150526673494e-05,5.00709840460539e-05,9.21793172981775e-05
3.04154566800959e-05,1.32725314326154e-05,6.03189436013407e-05,0.000104006931714052
4.17202501068297e-05,1.68688961253061e-05,6.8053202040918e-05,0.000126642348273054
2.45051334312832e-05,1.10779063835345e-05,4.51962995202968e-05,8.07793393351144e-05
3.86336794066159e-05,1.59337572346176e-05,6.25002684521978e-05,0.000117067705093431
2.68134244045617e-05,1.14571502255641e-05,5.42382911439896e-05,9.25088657741154e-05
3.43065208234053e-05,1.35237636374961e-05,4.96256715642444e-05,9.74559560251458e-05
1.92181520072293e-05,1.40039347398779e-05,3.65066784278319e-05,6.97287651749392e-05
1.14651173268294e-05,6.7054348566803e-06,1.70727181180009e-05,3.52432703015106e-05
1.0710510835036e-05,7.52990617688525e-06,1.90162364773398e-05,3.7256653489261e-05
2.21126722593964e-05,1.80244048956305e-05,3.3219363954538e-05,7.33564411095648e-05
1.85073768192925e-05,1.67156552613761e-05,2.79656034133024e-05,6.3188635493971e-05
2.44157916062156e-05,2.02420885434527e-05,3.81248767096681e-05,8.27827568593364e-05
2.00352979733316e-05,1.84453910503447e-05,2.76067881722149e-05,6.60874771958912e-05
3.66080445889413e-05,3.07063037527389e-05,4.27396303765558e-05,0.000110053978718236
3.32478398436673e-05,1.767859120675e-05,4.52906146376558e-05,9.62170456880732e-05
3.10305399092325e-05,2.01049051792545e-05,6.68755887422596e-05,0.000118011033830747
1.71167589836117e-05,1.28233455928844e-05,3.18464732167498e-05,6.17865777932458e-05
1.24819591253333e-05,9.16510551593058e-06,1.19694600642397e-05,3.36165247055035e-05
5.21573737951025e-06,3.9580556168722e-06,8.70453192208929e-06,1.78783249184717e-05
7.17261620333336e-06,6.23051932783021e-06,1.10883818194659e-05,2.44915173506294e-05
1.16876520818641e-05,1.22671440309127e-05,1.37129709235829e-05,3.76677670363596e-05
9.21490181719666e-06,6.76445429661338e-06,9.82568956012626e-06,2.58050456739363e-05
1.4302752134e-05,1.42492430038187e-05,1.30620666139407e-05,4.16140617517593e-05
5.63076363390882e-06,6.22648355565165e-06,8.81093152805663e-06,2.06681787176171e-05
9.30951921906507e-06,9.4429614108812e-06,1.3466290278593e-05,3.22187709085393e-05
3.67994108451173e-06,3.89833418158155e-06,8.65217657190495e-06,1.62304518379982e-05
3.15333002088111e-06,3.48501909329078e-06,7.67982721045044e-06,1.43181763246223e-05
7.01326468030408e-06,5.78001763562825e-06,1.19313310110922e-05,2.47246133270245e-05
9.84847318363193e-06,1.0200988820416e-05,1.28344208757056e-05,3.28838828797535e-05
4.45740535472342e-05,5.24746976082873e-05,5.3336613702558e-05,0.000150385364858079
1.65659730149021e-05,1.81530704047119e-05,1.64077734622316e-05,5.11268168818456e-05
3.77146248882575e-05,4.69724546267106e-05,4.79992845899352e-05,0.000132686364104903
0.0011218406503949,0.00218857894598494,0.00337907675815179,0.00668949635453163
0.000993674065242072,0.0015098902768002,0.00236355631871661,0.00486712066075888
0.000593145215583196,0.0018193978239042,0.00202417479751752,0.00443671783700492
2.70324187875513e-05,1.79524545576185e-05,4.48322646019331e-05,8.98171379471029e-05
1.14514150707896e-05,5.75465299560048e-06,2.28345415303921e-05,4.00406095967822e-05
0.000223107668376617,0.000723328766624493,0.000255281296636937,0.00120171773163805
0.000103523408917136,0.000109022805644022,0.000103443980575869,0.000315990195137027
1.60392501169771e-05,1.23995101281101e-05,1.64708709072396e-05,4.49096311523268e-05
7.07280727473939e-06,6.81285084772371e-06,1.11345362913746e-05,2.50201944138377e-05
9.38807712881451e-06,9.17534324600172e-06,1.32756653739066e-05,3.18390857487228e-05
8.62773690480138e-06,7.52617566497824e-06,1.17754457915169e-05,2.79293583612965e-05
4.48463301115741e-06,3.62087386006081e-06,9.49328378839408e-06,1.75987906596123e-05
1.0144404278558e-05,8.7095996382244e-06,1.21581491247292e-05,3.10121530415115e-05
5.09030971600657e-06,4.45075216773994e-06,8.67995990378987e-06,1.82210217875364e-05
4.86886741667116e-06,3.83388024506785e-06,8.22538019962483e-06,1.69281278613638e-05
4.40626423540057e-06,4.33551267379074e-06,8.48655658384153e-06,1.72283334930328e-05
4.43889772140549e-06,3.65727900967231e-06,8.43212541024225e-06,1.652830214132e-05
4.6854448815229e-06,3.55000048605171e-06,8.35489552490071e-06,1.65903408924753e-05
4.83920730456397e-06,3.82276658580769e-06,8.08106511040941e-06,1.67430390007811e-05
4.09421197387288e-06,3.94418955068925e-06,7.65892222426964e-06,1.56973237488318e-05
4.33250690081386e-06,4.24925916270826e-06,7.88449460965884e-06,1.6466260673181e-05
8.57356998372777e-06,7.58638669433764e-06,1.07358023837099e-05,2.68957590617753e-05
1.17746502500096e-05,7.28344297492115e-06,1.5953762126125e-05,3.50118553510558e-05
3.6848607912088e-06,3.25658651480929e-06,7.36918900299006e-06,1.43106363090082e-05
1.04968040289254e-05,9.63757596658305e-06,1.19513731429013e-05,3.20857531384097e-05
1.10609748635137e-05,8.64793917819172e-06,1.11563336222093e-05,3.08652476639147e-05
9.47795768993532e-06,4.85460653836984e-06,1.01241436788731e-05,2.44567079071783e-05
5.22904181311067e-06,4.20845255189861e-06,8.32914979359391e-06,1.77666441586032e-05
6.61975562793521e-06,4.89842482014209e-06,9.41709160660517e-06,2.09352720546825e-05
4.97050392692601e-06,4.53242679136883e-06,9.28867897465297e-06,1.87916096929478e-05
9.10485342481474e-06,9.35695787536607e-06,1.01306162485815e-05,2.85924275487623e-05
8.62066718596569e-06,6.91737088434606e-06,9.85274955254468e-06,2.53907876228564e-05
9.9630863583401e-06,9.0711987613677e-06,1.02791886192803e-05,2.93134737389881e-05
8.20152390613788e-06,5.30075084568469e-06,8.34070903424849e-06,2.18429837860711e-05
4.53209186190248e-06,3.96697134064128e-06,8.30397699436794e-06,1.68030401969117e-05
3.96192810619522e-06,3.05232537717977e-06,6.9645948191007e-06,1.39788483024757e-05
5.53356543832805e-06,3.59819436939721e-06,8.18526684272878e-06,1.7317026650454e-05
5.8543878167902e-06,3.79483880173524e-06,7.92772705114325e-06,1.75769536696687e-05
6.76425688140683e-06,5.11416808844299e-06,8.46310369903301e-06,2.03415286688828e-05
4.54811547599192e-06,3.50977387250659e-06,7.64386500861936e-06,1.57017543571179e-05
1.52515128176083e-05,6.59424740598382e-06,1.13599063691591e-05,3.32056665927512e-05
1.09422076483899e-05,5.57861214288149e-06,1.05350383273067e-05,2.70558581185781e-05
1.47873217229955e-05,7.95002375501237e-06,1.15025591736096e-05,3.42399046516175e-05
4.4307562429332e-06,3.38531548509245e-06,7.45193538503479e-06,1.52680071130604e-05
6.87688808969904e-06,1.06814900006458e-05,8.70857767827476e-06,2.62669557686196e-05
4.61449583843185e-06,4.41935260477182e-06,7.66247332495598e-06,1.66963217681596e-05
8.64765630994426e-06,7.45391536526886e-06,1.1944092169198e-05,2.80456638444111e-05
7.0042541040343e-06,7.68141292158147e-06,8.73071680942114e-06,2.34163838350369e-05
6.73269751281508e-06,5.06945335152983e-06,8.98053998274574e-06,2.07826908470907e-05
8.47229613403683e-06,4.67089335189246e-06,9.49151303901014e-06,2.26347025249394e-05
4.1999781561618e-06,3.53877645229165e-06,7.95671319805764e-06,1.56954678065111e-05
4.65003404654124e-06,3.18216102262055e-06,7.29029686882057e-06,1.51224919379824e-05
5.34052325006694e-06,4.80760038722481e-06,8.11148188046405e-06,1.82596055177558e-05
5.29269524427893e-06,3.59300962312979e-06,7.45902970607602e-06,1.63447345734847e-05
9.20278245525379e-06,5.73635736100793e-06,1.05452105472267e-05,2.54843503634885e-05
7.47760780903236e-06,7.05904396222837e-06,9.24949995621576e-06,2.37861517274765e-05
1.00986277786051e-05,5.91500297171811e-06,9.74846790188583e-06,2.57620986522091e-05
1.2185470604586e-05,5.73870042327337e-06,1.12717074479934e-05,2.91958784758528e-05
9.4784972966789e-06,5.43962294661339e-06,1.03519126558969e-05,2.52700328991892e-05
5.03892799869753e-06,3.80299871782231e-06,8.26952722153085e-06,1.71114539380507e-05
5.03368390750919e-06,5.45052401731309e-06,8.0138207683549e-06,1.84980286931772e-05
2.89801275474172e-06,2.90882273841428e-06,6.8913981875149e-06,1.26982336806709e-05
7.63061641728195e-06,4.83927731817282e-06,8.32140946040864e-06,2.07913031958634e-05
5.19646733523133e-06,3.93663818376305e-06,8.19590175875049e-06,1.73290072777449e-05
5.77888633547011e-06,5.22940012083622e-06,8.27174228237497e-06,1.92800287386813e-05
3.74577347282909e-06,4.57850734958054e-06,7.52902577466295e-06,1.58533065970726e-05
6.93568879466314e-06,3.97884806514551e-06,9.32192891331183e-06,2.02364657731205e-05
4.73649950034025e-06,3.82393931660878e-06,7.9015836726067e-06,1.64620224895557e-05
5.97090370662928e-06,4.56595683136938e-06,8.9331608939865e-06,1.94700214319852e-05
7.59521254043258e-06,5.14423684936766e-06,8.51122004064212e-06,2.12506694304424e-05
3.6474508939554e-06,3.75016798910743e-06,7.5007621417968e-06,1.48983810248596e-05
1.3539789565867e-05,8.38512757103629e-06,1.31867222255437e-05,3.5111639362447e-05
9.82085707064806e-06,1.02348816422392e-05,1.3853483533702e-05,3.39092222465892e-05
3.05893239355636e-06,2.96521033456589e-06,6.7367995251168e-06,1.2760942253239e-05
4.08855464168274e-06,3.36909894041906e-06,7.12231932603622e-06,1.4579972908138e-05
3.82740423200462e-06,3.63394307569427e-06,7.36422419982049e-06,1.48255715075194e-05
9.3344476340187e-06,8.26764103162212e-06,1.02816034874111e-05,2.78836921530519e-05
5.23943216774923e-06,3.59884002348098e-06,7.69725461996859e-06,1.65355268111988e-05
4.41760360109489e-06,3.30601021351592e-06,7.96421618716203e-06,1.56878300017728e-05
1.25075792941388e-05,5.88139113460698e-06,1.17648255744055e-05,3.01537960031513e-05
2.38293607501443e-05,1.38899455378079e-05,1.56937335651503e-05,5.34130398531025e-05
1.14681552633913e-05,5.69071530501028e-06,1.09063354814263e-05,2.80652060498278e-05
3.64513488833927e-06,2.99580845553169e-06,7.45911495707752e-06,1.41000583009485e-05
3.63329241714087e-06,3.21038813554387e-06,7.62122403412132e-06,1.44649045868061e-05
5.64010807502177e-06,4.31895429717217e-06,8.56063511801837e-06,1.85196974902123e-05
5.60402787158101e-06,3.89015368098272e-06,8.68578614347404e-06,1.81799676960378e-05
3.62170010671937e-06,3.08406319364923e-06,7.35421819334605e-06,1.40599814937147e-05
5.06327682761799e-06,3.64469577054867e-06,8.01012442243061e-06,1.67180970205973e-05
3.77291633445894e-06,3.23268233926511e-06,7.82227560757962e-06,1.48278742813037e-05
6.44463228886372e-06,4.93654923209012e-06,8.69313790771759e-06,2.00743194286714e-05
5.76240071709108e-06,4.0702039689509e-06,8.41651032189096e-06,1.82491150079329e-05
9.70507158048044e-06,5.49292589080321e-06,9.60937398061155e-06,2.48073714518952e-05
3.71331133027548e-06,3.2214009508217e-06,7.59800062602915e-06,1.45327129071263e-05
1.40233369194357e-05,7.49687768624851e-06,1.55051067422076e-05,3.70253213478919e-05
2.1985792724385e-05,1.37504240963587e-05,1.83298890695127e-05,5.40661058902564e-05
1.08646356335689e-05,6.05131520189215e-06,1.322821604108e-05,3.0144166876541e-05
6.14033919378924e-06,3.98679727048138e-06,9.17200383405408e-06,1.92991402983247e-05
1.42137697686788e-05,1.51731208592361e-05,1.20060018787102e-05,4.13928925066251e-05
3.38831275950145e-06,3.15493380006388e-06,7.88356545054727e-06,1.44268120101126e-05
3.65908742345289e-06,3.43454441150389e-06,8.01633203873905e-06,1.51099638736958e-05
4.10086370348783e-06,3.30970559967249e-06,8.63308538151708e-06,1.60436546846774e-05
6.88005525136204e-06,8.62951402675668e-06,9.71609365647217e-06,2.52256629345909e-05
5.13641386380401e-06,4.89553691553954e-06,8.50320656589016e-06,1.85351573452337e-05
4.58845588682267e-06,4.1742677034899e-06,8.15682952271684e-06,1.69195531130294e-05
1.22149791239205e-05,1.09873455525294e-05,1.38970072180359e-05,3.70993318944858e-05
1.53130037720874e-05,8.98508725627489e-06,1.44847017685518e-05,3.87827927969141e-05
1.80969060405481e-05,1.04947810432869e-05,1.60419131222439e-05,4.4633600206079e-05
1.3873038442282e-05,7.51662308250114e-06,1.20098937843601e-05,3.33995553091432e-05
8.17920923820402e-06,5.4024756348711e-06,1.12794575397973e-05,2.48611424128724e-05
1.06010072088285e-05,5.79089596638488e-06,1.11818681910992e-05,2.75737713663126e-05
8.84332545444518e-06,6.40774140312414e-06,1.12032527895369e-05,2.64543196471062e-05
8.86907550530041e-06,9.91111830299166e-06,1.46408095194199e-05,3.3421003327712e-05
5.22636369218845e-06,7.55372087988893e-06,1.03096574613758e-05,2.30897420334532e-05
4.1961982256204e-06,5.5118506161442e-06,8.74860469641819e-06,1.84566535381828e-05
1.06952422401171e-05,5.61029508849102e-06,9.61932652905378e-06,2.59248638576619e-05
9.55306025543639e-06,8.25785708182469e-06,1.18063056788201e-05,2.96172230160811e-05
9.07748434495597e-06,6.73301230695472e-06,9.50178248695445e-06,2.53122791388651e-05
6.49734879905052e-06,5.02438866611985e-06,9.1932167209394e-06,2.07149541861098e-05
1.64735076516739e-05,1.60751946357741e-05,1.81845829373912e-05,5.07332852248393e-05
8.93865227285961e-06,1.2811901846511e-05,1.07355724881221e-05,3.24861266074927e-05
8.41696765309399e-06,1.10492434284808e-05,1.06699151145961e-05,3.01361261961708e-05
8.161747363083e-06,9.83637642813413e-06,1.13424211680756e-05,2.93405449592928e-05
6.20943731640992e-06,8.7289421574595e-06,9.02751553388461e-06,2.3965895007754e-05
9.48565002383527e-06,8.68136438523579e-06,9.67127212560019e-06,2.78382865346712e-05
7.75930370432459e-06,8.38127182813808e-06,9.46899981259451e-06,2.56095753450572e-05
6.00860835149137e-06,7.30913060094723e-06,8.79796967739717e-06,2.21157086298358e-05
1.61852744714684e-05,1.29523744418723e-05,1.28901404198915e-05,4.20277893332322e-05
1.2528204084368e-05,1.38534455269267e-05,1.31145907250519e-05,3.94962403363466e-05
1.20923444585972e-05,1.11215374164844e-05,1.22769429264972e-05,3.54908248015788e-05
5.97489112421341e-06,8.09756728163218e-06,9.36806300757536e-06,2.34405214134209e-05
1.02772599315237e-05,9.89439961257276e-06,1.11653114495218e-05,3.13369709936183e-05
5.49334081820453e-06,7.0691716343247e-06,8.63619902100472e-06,2.1198711473534e-05
1.05208128640561e-05,1.63874861981191e-05,1.24083099097055e-05,3.93166089718807e-05
1.12055045038662e-05,1.52119374294741e-05,1.22604424555557e-05,3.8677884388896e-05
6.10855395766579e-06,9.58609550705533e-06,8.8574458193698e-06,2.45520952840909e-05
1.21420843569856e-05,1.30940318882734e-05,1.34321905608545e-05,3.86683068061135e-05
1.20817319639856e-05,1.28571412972744e-05,1.27297089073449e-05,3.76685821686049e-05
8.3812507265374e-06,1.15897866848742e-05,1.05607071463089e-05,3.05317445577205e-05
7.25388103339642e-06,7.58639287180055e-06,1.01601314439774e-05,2.50004053491744e-05
5.78270361757776e-06,6.85129062142492e-06,9.23107738230527e-06,2.18650716213079e-05
1.10443116734127e-05,1.13342203832601e-05,1.19576347624264e-05,3.43361668190992e-05
5.48995343622296e-06,6.64211160888886e-06,8.88252211098478e-06,2.10145871560966e-05
1.45359338187053e-05,1.15324597990952e-05,1.52328717785454e-05,4.13012653963459e-05
7.18313219285146e-06,7.06660494866718e-06,9.78250858733593e-06,2.40322457288546e-05
7.08209425849955e-06,7.6194567025539e-06,9.18130556792705e-06,2.38828565289805e-05
6.99354446167221e-06,7.03938346155954e-06,9.16269994436557e-06,2.31956278675973e-05
5.76536714046774e-06,6.70425826084053e-06,9.22697086171802e-06,2.16965962630263e-05
1.26981453168435e-05,1.07394013770397e-05,1.27958514295246e-05,3.62333981234078e-05
9.41444238395789e-06,8.97841115475034e-06,1.16742020507316e-05,3.00670555894398e-05
7.93180013778756e-06,7.02016888349654e-06,1.05632034210548e-05,2.55151724423389e-05
1.06333832361078e-05,1.14058453600101e-05,1.20136782484368e-05,3.40529068445547e-05
6.28290098243089e-06,6.84375012875852e-06,8.65678960716673e-06,2.17834407183561e-05
7.00870480732349e-06,8.85759242389069e-06,1.006766433255e-05,2.59339615637641e-05
2.50949986195426e-05,2.27093590328787e-05,2.27389627876162e-05,7.05433204400376e-05
4.06261840960247e-06,3.650237060583e-06,8.57812704250708e-06,1.62909825126926e-05
3.77448245219645e-06,3.47450190819485e-06,8.11381973501849e-06,1.53628040954098e-05
5.91334375012573e-06,4.80857304276404e-06,1.01728971077442e-05,2.0894813900634e-05
1.11358293782244e-05,1.50739088511902e-05,1.62753873700165e-05,4.24851255994311e-05
2.84649847729962e-05,3.04253430762989e-05,3.00514702423707e-05,8.89417980916658e-05
1.21321990739536e-05,8.72283278741036e-06,1.50225057121143e-05,3.58775375734783e-05
1.79714206147163e-05,2.00292875152145e-05,2.69698901894605e-05,6.49705983193913e-05
4.99691571895645e-06,4.34553351142749e-06,9.8747408827182e-06,1.92171901131022e-05
5.80942423082367e-06,4.69259668419911e-06,1.27929869867181e-05,2.32950079017409e-05
6.15440372982833e-06,4.82793388091257e-06,1.1945481823973e-05,2.29278194347139e-05
4.27108878568957e-06,3.96701855807546e-06,9.44451518936589e-06,1.76826225331309e-05
5.32895832774966e-06,4.5025949391362e-06,1.11957198173245e-05,2.10272730842103e-05
0.00037451391670339,0.00217292711375729,0.00108750509237265,0.00363494612283333
3.41105593533921e-06,3.23558747341177e-06,8.01737812018971e-06,1.46640215289407e-05
2.98506024704004e-06,2.89606671067304e-06,7.82491190872363e-06,1.37060388664367e-05
5.18717220320352e-06,8.42469433309507e-06,1.04834524344637e-05,2.40953189707623e-05
7.46377443478287e-06,6.73673450664513e-06,1.25304327617633e-05,2.67309417031913e-05
6.50529317258255e-06,6.22607375888637e-06,1.40854212982029e-05,2.68167882296718e-05
4.16495401623149e-06,4.8346985171868e-06,9.9831927004652e-06,1.89828452338835e-05
5.26338422378645e-06,3.43255079752981e-06,8.82634292218837e-06,1.75222779435046e-05
4.47003482642911e-06,3.63217999912864e-06,1.01099418673776e-05,1.82121566929353e-05
1.75910549858978e-05,9.88468794205756e-06,1.98023565430408e-05,4.72780994709961e-05
3.27494826566985e-06,2.99268433675409e-06,7.79574989223797e-06,1.40633824946619e-05
6.02380878771325e-05,9.99604427665021e-05,6.09907974033549e-05,0.000221189328046989
2.25452662212737e-05,1.21215902925587e-05,2.12395152434965e-05,5.5906371757329e-05
5.95589373312257e-06,4.84691520192325e-06,1.14977695656142e-05,2.230057850066e-05
8.12651578245768e-06,8.58205233101958e-06,1.21727566650685e-05,2.88813247785458e-05
6.8424072231973e-06,5.26097491385856e-06,1.11383014293915e-05,2.32416835664474e-05
5.70084275315511e-06,3.41069312037042e-06,9.0565523572589e-06,1.81680882307844e-05
1.24482786095952e-05,8.6050503454665e-06,1.41309356687387e-05,3.51842646238004e-05
1.3788655760927e-05,8.85530569287815e-06,2.01630096643547e-05,4.28069711181599e-05
3.05046448563545e-06,2.79051349532842e-06,7.96222991717012e-06,1.3803207898134e-05
6.66826258324395e-06,4.20143620621626e-06,1.03482772742572e-05,2.12179760637174e-05
7.56046532876955e-06,4.84940180534536e-06,1.22026442193708e-05,2.46125113534857e-05
1.14917540203404e-05,7.7493007566598e-06,1.71124971198275e-05,3.63535518968277e-05
5.54441920126895e-06,4.04795103719589e-06,9.70415792946385e-06,1.92965281679287e-05
4.81565870960064e-06,4.42128380268769e-06,9.43990471016076e-06,1.86768472224491e-05
5.9111443901866e-06,4.30324187327156e-06,9.48971949720016e-06,1.97041057606583e-05
5.65213693071295e-06,4.10924774501527e-06,8.31327163612891e-06,1.80746563118571e-05
5.51028670511675e-06,3.89426376555112e-06,8.87199761933925e-06,1.82765480900071e-05
5.9335060756712e-06,3.92202978257877e-06,8.48296442781631e-06,1.83385002860663e-05
1.4223495224334e-05,9.25802841945004e-06,1.46640270810628e-05,3.81455507248469e-05
7.70104624447921e-06,8.8042483305941e-06,1.21770209983952e-05,2.86823155734685e-05
7.69834358559587e-06,7.8720455437077e-06,9.98214206776977e-06,2.55525311970733e-05
9.15307813897534e-06,7.83340300687817e-06,1.29383209504985e-05,2.9924802096352e-05
3.71940993879361e-05,2.83217434188896e-05,3.92939450547148e-05,0.00010480978786154
9.3745293704124e-06,6.55172228310612e-06,1.24026704446482e-05,2.83289220981667e-05
5.75838373623506e-06,3.92556512612217e-06,8.27211055856604e-06,1.79560594209233e-05
9.2399625970044e-06,6.29084393101145e-06,1.01429362090835e-05,2.56737427370993e-05
9.1729136333641e-06,6.76423505423181e-06,1.06245438897583e-05,2.65616925773543e-05
0.00288223429617957,0.0120235218748049,0.00142979890148885,0.0163355550724733
1.0879713470884e-05,7.0530268123836e-06,1.30331829182522e-05,3.09659232015198e-05
0.000304600311805956,0.000438852932962641,0.000441390722003149,0.00118484396677175
1.23417588765233e-05,7.81291004668635e-06,1.3221237436703e-05,3.33759063599127e-05
2.44563571680134e-05,9.98587256768042e-06,1.80489943652276e-05,5.24912241009215e-05
4.61575630885627e-06,4.29681834487626e-06,8.14093506025753e-06,1.70535097139901e-05
6.13836612279391e-06,4.44518885370915e-06,8.94820293361693e-06,1.953175791012e-05
1.95681181122213e-05,1.03817794425497e-05,1.48980046371061e-05,4.48479021918771e-05
1.08904711583419e-05,8.49626464798123e-06,1.67421285526257e-05,3.61288643589488e-05
1.37284913668158e-05,9.73088863227216e-06,1.18743560786858e-05,3.53337360777737e-05
8.14013914782202e-06,5.48636262834012e-06,9.90597938806547e-06,2.35324811642276e-05
1.04551225968216e-05,4.21354871851065e-06,8.98686899448837e-06,2.36555403098206e-05
6.85054813557942e-06,4.71328506714101e-06,8.71866150204443e-06,2.02824947047649e-05
1.02832953422924e-05,5.26700111190332e-06,1.03650275521047e-05,2.59153240063004e-05
1.15145681869098e-05,4.23261843281224e-06,1.18855810846496e-05,2.76327677043716e-05
1.04451200573497e-05,6.02681768623463e-06,1.08426113925847e-05,2.7314549136169e-05
4.27534716162383e-06,3.46017602799055e-06,7.23728425099681e-06,1.49728074406112e-05
1.04561855725429e-05,5.17146027021602e-06,8.88827296598876e-06,2.45159188087477e-05
3.8726333301073e-06,3.17292408746072e-06,7.33948420117482e-06,1.43850416187428e-05
1.88243187896246e-05,1.08301808000845e-05,1.41517663163785e-05,4.38062659060876e-05
4.48040291514815e-06,3.59366779710796e-06,8.54193748431771e-06,1.66160081965738e-05
3.17600387637063e-06,3.10162259682945e-06,7.43878085351996e-06,1.371640732672e-05
0.000107126126159868,5.22371037693548e-05,7.03912303479215e-05,0.000229754460277145
0.000183746044276537,0.000131338688951154,0.00010999518899191,0.0004250799222196
1.06741491614229e-05,8.05980860772489e-06,1.19300087358901e-05,3.06639665050379e-05
1.09738950202024e-05,6.85648147264673e-06,9.78681183154667e-06,2.76171883243958e-05
4.8348547499439e-06,4.02057608276984e-06,8.11852155462737e-06,1.69739523873411e-05
1.04989795318398e-05,5.8221610205812e-06,1.01246754240967e-05,2.64458159765177e-05
8.25865047488944e-06,6.86730897831011e-06,9.50219114076113e-06,2.46281505939607e-05
6.22494631803008e-06,6.7777514971907e-06,8.61622763924569e-06,2.16189254544665e-05
3.80196835458333e-06,3.40553586953958e-06,7.22709233467528e-06,1.44345965587982e-05
1.04944705767156e-05,7.84670374810458e-06,1.03617975097882e-05,2.87029718346083e-05
3.95625695500776e-06,3.45142054840764e-06,7.56934838411204e-06,1.49770258875274e-05
3.77630277255293e-06,3.55416462019416e-06,7.25599198930761e-06,1.45864593820547e-05
9.49176300189704e-06,7.26466651479684e-06,9.7969350608876e-06,2.65533645775815e-05
5.57726045646414e-06,3.94672478499205e-06,8.03465093560905e-06,1.75586361770652e-05
5.2698449042733e-06,4.3428583629568e-06,8.62123267793926e-06,1.82339359451694e-05
5.25638718481562e-06,3.54399323411074e-06,7.80565746882354e-06,1.66060378877499e-05
5.12090783723483e-06,3.74978178509212e-06,8.02774393689254e-06,1.68984335592195e-05
4.76093595491023e-06,3.51703745596663e-06,7.85809625563208e-06,1.61360696665089e-05
1.15887030108369e-05,7.61664823973847e-06,1.19415862653745e-05,3.11469375159499e-05
4.82922723271354e-06,3.4499746155602e-06,7.92721179503249e-06,1.62064136433062e-05
6.07292175365204e-06,4.23257056916602e-06,9.4174618497415e-06,1.97229541725596e-05
9.63454499022559e-06,7.2901923350037e-06,8.93289000833769e-06,2.5857627333567e-05
9.45126318104032e-06,6.8227421207099e-06,1.0026314281081e-05,2.63003195828312e-05
7.83998934564272e-06,4.89070190170871e-06,8.35088389962613e-06,2.10815751469776e-05
5.91755471389381e-06,3.46421318111103e-06,7.66742749576777e-06,1.70491953907726e-05
7.70832202850928e-06,7.30660779139128e-06,9.94806169952465e-06,2.49629915194252e-05
1.2759244335788e-05,9.19569428321039e-06,1.12780402419515e-05,3.32329788609499e-05
1.27731773826503e-05,8.06808139354898e-06,1.22155247102724e-05,3.30567834864717e-05
6.54878811203873e-06,4.01558922849899e-06,9.4820509901725e-06,2.00464283307102e-05
3.84827777035751e-06,3.02456454054155e-06,8.05483586918122e-06,1.49276781800803e-05
3.0355916813231e-06,2.82802576836176e-06,6.96406203359964e-06,1.28276794832845e-05
1.59546631425841e-05,7.39369750794595e-06,1.23885849047363e-05,3.57369455552663e-05
5.30262119570303e-06,3.58611753840579e-06,8.04000147931222e-06,1.6928740213421e-05
5.74917818405132e-06,3.8453446468256e-06,8.61187781952197e-06,1.82064006503989e-05
3.60996434524128e-05,2.24049870637073e-05,3.40934354148523e-05,9.25980659309724e-05
1.7630577219963e-05,1.07642717300065e-05,1.85760175029911e-05,4.69708664529607e-05
9.43670034757396e-06,4.91921732303229e-06,1.04632055219991e-05,2.48191231926053e-05
5.68060808744256e-06,4.24810629572776e-06,9.11970638273635e-06,1.90484207659067e-05
5.27209861926199e-06,4.98646305955346e-06,1.03132631901746e-05,2.05718248689901e-05
5.01228818830758e-06,4.91686990063084e-06,8.91561041379276e-06,1.88447685027312e-05
1.20560522567773e-05,1.52622738562929e-05,1.19839204671786e-05,3.93022465802488e-05
5.74954413014972e-06,4.62262307337654e-06,9.61590819465719e-06,1.99880753981834e-05
4.43959304129735e-06,4.67402187442393e-06,8.40500490330819e-06,1.75186198190295e-05
5.03803329789303e-06,3.99736417743765e-06,8.53898929693865e-06,1.75743867722693e-05
5.65592245100622e-06,4.85073391640099e-06,8.82841946093324e-06,1.93350758283404e-05
4.99612494931654e-06,4.67548769009554e-06,8.47910316935369e-06,1.81507158087658e-05
4.95322598935466e-06,3.97100761667742e-06,8.21389682907807e-06,1.71381304351102e-05
8.41717276542925e-06,6.13483339789562e-06,9.36882754631153e-06,2.39208337096364e-05
9.91911989773494e-06,6.13966376419595e-06,1.02338122089966e-05,2.62925958709275e-05
6.11888837639317e-06,4.49013039010928e-06,9.20244314307216e-06,1.98114619095746e-05
1.8903860681586e-05,1.78573726576505e-05,1.7443982302403e-05,5.42052156416395e-05
5.27721822892289e-06,4.62974162209971e-06,8.74559689740745e-06,1.86525567484301e-05
5.7420303103955e-06,3.92624371920466e-06,8.60961158105548e-06,1.82778856106556e-05
7.28534297417684e-06,5.8188215095609e-06,9.79675272232526e-06,2.2900917206063e-05
4.81473860705127e-06,4.41300279538082e-06,8.76440108154165e-06,1.79921424839737e-05
3.44827176353799e-06,3.12057512701104e-06,7.59468052786012e-06,1.41635274184092e-05
4.47730929164082e-06,3.79020783951031e-06,8.41569570040815e-06,1.66832128315593e-05
6.98152158983007e-06,7.09588450283787e-06,9.52857530188075e-06,2.36059813945487e-05
4.32029821463485e-06,3.33214876182898e-06,8.1513766374861e-06,1.58038236139499e-05
5.41047325910997e-06,4.3427953864181e-06,8.43660314652545e-06,1.81898717920535e-05
3.45925702723803e-06,3.0368573050517e-06,7.44703876502969e-06,1.39431530973194e-05
4.76375742103429e-06,3.51579221480216e-06,8.38189588743474e-06,1.66614455232712e-05
4.68120938167844e-06,4.37622428977585e-06,8.23488222634263e-06,1.72923158977969e-05
9.16654145960405e-06,6.46635701197675e-06,9.44664940945696e-06,2.50795478810378e-05
5.23015286137491e-06,3.3430688409645e-06,8.18002417070746e-06,1.67532458730469e-05
3.35072943440224e-06,2.62467834804975e-06,7.97429644941626e-06,1.39497042318682e-05
2.99976470953917e-05,2.91679888746807e-05,3.48236716053591e-05,9.39893075754316e-05
4.41053986950078e-06,3.91062083999908e-06,8.41619871230418e-06,1.6737359421804e-05
3.15892577543881e-06,3.23355384241047e-06,7.85723353296806e-06,1.42497131508173e-05
1.28268619965542e-05,7.8050101391889e-06,1.16322498987622e-05,3.22641220345052e-05
3.67075607925166e-05,3.06461683441678e-05,3.50378972211181e-05,0.000102391626357802
6.70169088222145e-06,6.04281334674074e-06,1.1328722080497e-05,2.40732263094592e-05
7.43370933210414e-06,1.13417678035296e-05,1.07096748200783e-05,2.9485151955712e-05
4.3860139770212e-06,3.46644257459025e-06,8.10426603364828e-06,1.59567225852597e-05
4.92585704098234e-06,3.69717527252831e-06,8.06360303354919e-06,1.66866353470598e-05
5.46604559200321e-06,3.97939614681007e-06,8.40704707333438e-06,1.78524888121477e-05
4.98884756240337e-06,4.10187755059119e-06,8.80621080715002e-06,1.78969359201446e-05
1.36779446294945e-05,1.03425715374965e-05,1.3866111595843e-05,3.7886627762834e-05
9.93645791073626e-06,9.58182922759305e-06,1.20106672415882e-05,3.15289543799175e-05
4.03142383061097e-06,3.41344795421683e-06,7.67986959333228e-06,1.51247413781601e-05
4.62640822739571e-06,3.65060207317945e-06,8.28281313498343e-06,1.65598234355586e-05
8.66089991560136e-06,4.77288920327588e-06,9.67204927250316e-06,2.31058383913804e-05
9.80073857256451e-06,1.15485506950597e-05,1.71591565157419e-05,3.85084457833661e-05
6.76826207461741e-06,4.17242080217301e-06,8.52911152613281e-06,1.94697944029232e-05
5.0567814294982e-06,3.40768863874544e-06,8.51780424680979e-06,1.69822743150534e-05
2.0433873930397e-05,6.48614682380956e-06,1.33310541942378e-05,4.02510749484444e-05
4.10962986150072e-06,3.21599118933058e-06,7.8740386550468e-06,1.51996597058781e-05
1.04554078834889e-05,4.13173177329347e-06,8.76152456845762e-06,2.334866422524e-05
8.15486781477096e-06,6.14277310507545e-06,9.35619832744504e-06,2.36538392472915e-05
