potencia_x,potencia_y,potencia_z,potencia_total_xyz
1.23933192548767e-05,0.000132672231776607,5.32425065886018e-05,0.000198308057620086
3.26336235524312e-06,3.15515727276393e-06,7.99219557769603e-06,1.44107152057031e-05
3.12392358282655e-06,3.12224549318638e-06,7.75762948785168e-06,1.40037985638646e-05
3.4056441774201e-06,3.27329539542964e-06,8.15436961059937e-06,1.48333091834491e-05
2.92163049528583e-06,2.84264724288598e-06,6.95955089628443e-06,1.27238286344562e-05
3.52313580058185e-06,3.24026044414311e-06,8.05827396516902e-06,1.4821670209894e-05
3.71997628594622e-06,3.15424254248181e-06,7.71271545522747e-06,1.45869342836555e-05
0.000121206810071275,0.000273832443793969,0.00020976170940706,0.000604800963272304
0.000141965325252213,0.00036022906535334,0.000378822051726668,0.000881016442332222
9.25898161231576e-06,5.15394509600226e-06,1.56362436993849e-05,3.0049170407703e-05
7.38889764587558e-05,0.000170386010227313,0.000161451294113314,0.000405726280799383
0.000190953027027647,9.93439011456455e-05,0.000137631978155125,0.000427928906328417
0.000151255720635497,0.000303831243769299,0.000164013385078728,0.000619100349483524
0.000306799713560624,0.000756496497563294,0.000612099584161813,0.00167539579528573
0.000265071602535696,0.00068233107612385,0.000489169783766597,0.00143657246242614
6.76466656182665e-05,0.000165004387441915,8.47673844456332e-05,0.000317418437505815
9.72942285152364e-05,0.000135269028461245,9.31753927164158e-05,0.000325738649692897
0.000286013023896201,0.0010064698389784,0.000938823796947656,0.00223130665982225
0.00046894773919791,0.00207115887643188,0.00177505978070876,0.00431516639633856
0.000310369022727593,0.00167442081265948,0.00113206429676116,0.00311685413214824
7.34797704122305e-05,0.000143455553415274,0.000175889730749912,0.000392825054577417
8.88118558215448e-05,0.000304241552078722,0.000141213900118538,0.000534267308018806
8.4108009418885e-05,5.21155282119065e-05,7.48178929465201e-05,0.000211041430577312
5.49563794108873e-05,2.43649601649449e-05,5.18822575814322e-05,0.000131203597157264
0.0003185000868103,0.000456288830889521,0.000295829345520475,0.0010706182632203
1.49374184022179e-05,3.06495713814556e-05,3.45675176856468e-05,8.01545074693203e-05
6.69791849689633e-06,9.467698403911e-06,1.40849629211752e-05,3.02505798219825e-05
1.06273161628626e-05,8.9852610017913e-06,1.69281846315459e-05,3.65407617961998e-05
8.84366226391529e-06,7.51526800225871e-06,1.39049140443386e-05,3.02638443105126e-05
5.14184152347296e-06,5.191517154031e-06,9.19394069405707e-06,1.9527299371561e-05
8.74474777006662e-06,6.25007616992033e-06,1.1679838616074e-05,2.6674662556061e-05
9.29966658333455e-06,6.53021085710055e-06,1.30078995443582e-05,2.88377769847933e-05
1.15641234326609e-05,7.39365778592812e-06,1.15519180383463e-05,3.05096992569353e-05
1.00003005939165e-05,4.2385027053727e-06,8.74918453130481e-06,2.2987987830594e-05
1.77799424766036e-05,1.02749401385025e-05,1.3752574806289e-05,4.18074574213952e-05
1.24665982154209e-05,4.38783665460159e-06,9.91574256522299e-06,2.67701774352455e-05
1.90342317977038e-05,1.92095317560217e-05,1.53947626539318e-05,5.36385262076573e-05
9.43534743545485e-06,8.5048356582138e-06,1.13491309720516e-05,2.92893140657202e-05
7.15161484550605e-06,9.66851715878091e-06,1.08463435196909e-05,2.76664755239778e-05
7.49606489465393e-06,9.01468332443914e-06,1.01633246072856e-05,2.66740728263787e-05
7.52223308002058e-06,8.12010660639312e-06,1.01576034460825e-05,2.57999431324962e-05
7.77237296976464e-06,8.51336623731782e-06,1.03409055869636e-05,2.6626644794046e-05
7.43849744546776e-06,6.69074919445727e-06,9.49410351243552e-06,2.36233501523606e-05
8.17009713185576e-06,8.10552659023067e-06,9.64008226375419e-06,2.59157059858406e-05
8.33672277082718e-06,8.75126942496739e-06,1.01692944543881e-05,2.72572866501826e-05
7.83453683211334e-06,8.56409556057781e-06,9.91072752976705e-06,2.63093599224582e-05
8.35836838233816e-06,7.67506494839472e-06,9.29187638649846e-06,2.53253097172313e-05
6.73027050351566e-06,6.69807643209148e-06,8.94694979530918e-06,2.23752967309163e-05
6.8731154633375e-06,6.63711336250044e-06,8.83449544428787e-06,2.23447242701258e-05
7.00265376042879e-06,6.65478390740396e-06,8.96561934133918e-06,2.26230570091719e-05
1.23543967760437e-05,1.09859793401302e-05,1.46643434821073e-05,3.80047195982812e-05
1.45542893955916e-05,1.2441216210428e-05,1.38411655517362e-05,4.08366711577557e-05
1.30113677102965e-05,1.03468435337843e-05,1.33579832271397e-05,3.67161944712205e-05
1.27542356631804e-05,1.18992708474611e-05,1.35464435699582e-05,3.81999500805996e-05
1.07665043780828e-05,1.02340807903073e-05,1.1336941158479e-05,3.2337526326869e-05
7.9468013348538e-06,8.58591319644037e-06,9.69737201994986e-06,2.6230086551244e-05
8.36119772175741e-06,7.51565700431972e-06,9.37820861010257e-06,2.52550633361797e-05
7.24532409601762e-06,6.90635491175721e-06,8.66611008645907e-06,2.28177890942339e-05
9.73772952920748e-06,7.4573768886327e-06,1.04825905588659e-05,2.7677696976706e-05
1.36870046499594e-05,1.43810244941119e-05,1.78795587718783e-05,4.59475879159496e-05
1.21546872979127e-05,1.09623987585057e-05,1.21227801211823e-05,3.52398661776007e-05
7.20787852400563e-06,7.01910657517437e-06,9.40821515835669e-06,2.36352002575367e-05
9.59027028071729e-06,6.94447580721098e-06,1.03355257941746e-05,2.68702718821029e-05
7.00262354052502e-06,5.91812695377964e-06,9.17020194656249e-06,2.20909524408671e-05
7.60229485168711e-06,6.39630517172256e-06,9.39737837001651e-06,2.33959783934262e-05
7.24438428926959e-06,5.20393115293729e-06,8.65089622987441e-06,2.10992116720813e-05
7.28138896736754e-06,5.09618056947689e-06,8.23176903588226e-06,2.06093385727267e-05
7.15869985905688e-06,4.94414565345151e-06,8.71945112019694e-06,2.08222966327053e-05
7.43859569632797e-06,5.67704320467919e-06,8.56268975174168e-06,2.16783286527488e-05
1.12067464942754e-05,8.30030433327294e-06,1.22536889724847e-05,3.17607398000331e-05
1.17633454954704e-05,5.23511682933485e-06,1.00480975394727e-05,2.7046559864278e-05
1.03747056655639e-05,3.1933516554644e-06,7.3732632391839e-06,2.09413205602122e-05
1.60026422336096e-05,1.52064308241202e-05,1.22983106475895e-05,4.35073837053192e-05
6.28074504380098e-06,3.50655842708535e-06,8.00407573419915e-06,1.77913792050855e-05
1.02086775333787e-05,6.18403584681029e-06,1.00991790538567e-05,2.64918924340457e-05
1.45906091127611e-05,4.59508120336658e-06,8.901886934362e-06,2.80875772504897e-05
1.09149591256534e-05,3.72185861155536e-06,8.06439929268337e-06,2.27012170298921e-05
1.04123699627988e-05,3.38036305231123e-06,7.89158921184624e-06,2.16843222269563e-05
8.39114906949585e-06,3.51469373218115e-06,8.01609270584664e-06,1.99219355075236e-05
1.20856661244248e-05,3.93306590872732e-06,8.72272513465923e-06,2.47414571678114e-05
1.11569597557757e-05,3.8070227677323e-06,8.49830029885368e-06,2.34622828223617e-05
1.2121386245201e-05,4.02509428359184e-06,8.19234745925681e-06,2.43388279880497e-05
1.16393204101423e-05,5.24259622601903e-06,9.53052493539602e-06,2.64124415715574e-05
3.96850540165651e-06,3.42158664068732e-06,7.95246738335983e-06,1.53425594257037e-05
3.82090757152804e-06,3.14508169193901e-06,8.02112945047817e-06,1.49871187139452e-05
9.85222689800739e-06,5.11794481571956e-06,1.08685008674776e-05,2.58386725812046e-05
3.1076405473377e-05,6.63674630208179e-05,4.49860746813998e-05,0.000142429943175595
1.49350618839122e-05,1.19399614820707e-05,1.63691454341028e-05,4.32441688000857e-05
1.9019918987491e-05,7.97178653760459e-06,1.11927288068319e-05,3.81844343319275e-05
4.15821588153522e-06,4.47163485107311e-06,9.29764645317545e-06,1.79274971857838e-05
3.72532684999547e-06,3.19183454609103e-06,8.19565492557306e-06,1.51128163216596e-05
3.80158179441376e-06,3.12437631330889e-06,7.85696637685291e-06,1.47829244845756e-05
3.79512447249284e-06,3.07052688534044e-06,8.03587884602252e-06,1.49015302038558e-05
8.41763145614923e-06,7.06060573290038e-06,1.12410273260718e-05,2.67192645151215e-05
4.33028290070657e-06,3.39207557632577e-06,8.71728674330158e-06,1.64396452203339e-05
4.11968054300299e-06,3.08486868720748e-06,7.64926744015798e-06,1.48538166703685e-05
5.65328880426423e-06,3.68451737053444e-06,9.0209299002512e-06,1.83587360750499e-05
1.00502999923183e-05,4.38910519770769e-06,9.90003795891991e-06,2.43394431489459e-05
1.38709031380758e-05,1.00717406406075e-05,1.36381886266233e-05,3.75808324053066e-05
1.36805876692093e-05,1.25217116478543e-05,1.77929698281926e-05,4.39952691452562e-05
7.59356942185292e-06,5.30639083999963e-06,1.04484293440916e-05,2.33483896059441e-05
1.01105718739543e-05,6.40724709303905e-06,1.05510239705462e-05,2.70688429375396e-05
1.45792924174994e-05,4.38993818903561e-06,9.50669666208114e-06,2.84759272686161e-05
1.15835299247277e-05,4.579810158156e-06,9.29266793222282e-06,2.54560080151066e-05
9.19888497767162e-06,3.28960442950641e-06,7.88936274224078e-06,2.03778521494188e-05
1.77174645560758e-05,5.96647043050085e-06,1.03632164390476e-05,3.40471514256242e-05
1.03569997963322e-05,4.64315588555177e-06,9.85550919445547e-06,2.48556648763395e-05
1.04717684738095e-05,4.01013646867634e-06,8.62899700496707e-06,2.31109019474529e-05
1.23047501333727e-05,3.97928478754921e-06,8.12228340565883e-06,2.44063183265807e-05
1.35407953907857e-05,4.08390282612655e-06,8.73094916733467e-06,2.63556473842469e-05
1.46502448905162e-05,5.59274389324694e-06,1.02368884152109e-05,3.04798771989741e-05
1.47032547412395e-05,1.48206932628569e-05,1.42135372271437e-05,4.37374852312401e-05
1.27360243051889e-05,1.42100282741285e-05,1.43374888697901e-05,4.12835414491075e-05
1.13599817485661e-05,9.70295300809506e-06,1.20723719974597e-05,3.31353067541208e-05
1.78529499006782e-05,1.76577417285722e-05,2.46604813876391e-05,6.01711730168896e-05
6.31752607024976e-06,8.17865420500345e-06,1.12773964866659e-05,2.57735767619191e-05
1.18831025014866e-05,8.54111695407365e-06,1.0659616053965e-05,3.10838355095253e-05
2.63980817984312e-05,1.71127240782374e-05,2.60979863041613e-05,6.96087921808299e-05
9.56317513976511e-06,8.59316082893854e-06,1.26848864264874e-05,3.0841222395191e-05
0.000136353724341228,0.000288902064533123,0.000108444343955105,0.000533700132829457
5.81391647728913e-06,4.95801108350141e-06,1.2270817529332e-05,2.30427450901226e-05
9.50097911253867e-06,9.57679381581348e-06,1.45794761913893e-05,3.36572491197414e-05
3.99612509956362e-06,3.35120559795406e-06,9.46492454464833e-06,1.6812255242166e-05
3.86803390960378e-06,3.84028859366556e-06,9.08417055188223e-06,1.67924930551516e-05
3.61560631502868e-06,3.17207210005735e-06,8.61006406151093e-06,1.5397742476597e-05
3.62554413032931e-06,3.33409341160908e-06,9.22303008920355e-06,1.61826676311419e-05
3.58830495377385e-06,3.34758784252564e-06,8.96479422010504e-06,1.59006870164045e-05
4.04327149148709e-06,3.65533442775131e-06,9.69950132129498e-06,1.73981072405334e-05
1.54073312122167e-05,1.17502911530215e-05,1.72502015302827e-05,4.44078238955209e-05
6.75472940803021e-06,6.37054348550429e-06,1.08466669507079e-05,2.39719398442424e-05
4.30146556737371e-06,3.73639198874262e-06,8.50837252987443e-06,1.65462300859908e-05
4.47620279253452e-06,3.6045021613646e-06,8.8336097868949e-06,1.6914314740794e-05
4.33342405799591e-06,3.57511655901491e-06,9.30546157173701e-06,1.72140021887478e-05
3.91946293595854e-06,3.27077302395283e-06,8.32595320019473e-06,1.55161891601061e-05
4.12521207492959e-06,3.54943123000574e-06,8.58156231965939e-06,1.62562056245947e-05
4.56008532764159e-06,3.83917930036725e-06,9.80966575084791e-06,1.82089303788568e-05
5.70475447706618e-06,4.78848666783014e-06,1.0397414495156e-05,2.08906556400524e-05
3.67137212489805e-06,3.07872491558687e-06,8.17545615369397e-06,1.49255531941789e-05
1.8022232059568e-05,1.14930424905097e-05,1.57906627775197e-05,4.53059373275975e-05
8.08275429691357e-06,6.20071909941976e-06,1.2052728659402e-05,2.63362020557354e-05
4.83163359245246e-06,3.41118839185538e-06,8.69618652652876e-06,1.69390085108366e-05
8.72322775382971e-06,5.71381572847632e-06,1.07693904901158e-05,2.52064339724218e-05
8.90284781441206e-06,5.27038550688289e-06,1.00588462747271e-05,2.4232079596022e-05
6.05704091511482e-06,4.03205388524902e-06,9.17827654580835e-06,1.92673713461722e-05
4.05502750168716e-05,5.90734801795256e-05,3.87319197455992e-05,0.000138355674941996
0.000166164945606271,0.000259085305862656,0.000176220163053792,0.000601470414522719
5.25558245585457e-05,4.21644602293175e-05,4.63538509284002e-05,0.000141074135716263
3.98629065806658e-06,3.61991682015699e-06,9.44406071110795e-06,1.70502681893315e-05
4.77387679705593e-06,4.0005855551766e-06,9.8292821856324e-06,1.86037445378649e-05
5.43295687254024e-06,4.99156227146428e-06,1.11395575181817e-05,2.15640766621862e-05
4.47026669984313e-06,4.36110083131966e-06,9.6832149751845e-06,1.85145825063473e-05
7.194739440836e-06,6.0264905731181e-06,1.30276798259821e-05,2.62489098399362e-05
5.00770773270798e-06,3.81515639854736e-06,8.74879491676806e-06,1.75716590480234e-05
4.45209316268967e-06,3.92275657173153e-06,8.73333290243671e-06,1.71081826368579e-05
1.13812461787487e-05,1.09055583608166e-05,1.54208620248621e-05,3.77076665644274e-05
9.03032010251985e-06,7.66307472404124e-06,1.15560615239562e-05,2.82494563505173e-05
5.93827036331994e-06,5.90325005379308e-06,1.0357057585233e-05,2.2198578002346e-05
4.24526210760573e-06,5.59434078531021e-06,9.87799468066783e-06,1.97175975735838e-05
6.37011446522508e-06,7.66957332124978e-06,1.28638531465129e-05,2.69035409329877e-05
4.00546685827998e-06,4.16109376582388e-06,8.74985673641571e-06,1.69164173605196e-05
3.84210140905873e-06,3.97340533169584e-06,8.64553477645174e-06,1.64610415172063e-05
3.77791983613599e-06,3.9363529486944e-06,8.48085208236697e-06,1.61951248671974e-05
3.7265574553373e-06,3.84317125114669e-06,8.79377897412982e-06,1.63635076806138e-05
3.74674611257233e-06,3.82721287126855e-06,8.22161455536649e-06,1.57955735392074e-05
3.77931644755928e-06,3.65304092632034e-06,8.43975843185403e-06,1.58721158057336e-05
8.8508348559607e-06,7.4249344837301e-06,1.0991774299081e-05,2.72675436387718e-05
6.65044235105601e-06,1.00452020917034e-05,1.43069990321519e-05,3.10026434749113e-05
9.75515173682644e-06,8.7885431670445e-06,1.4083763459118e-05,3.2627458362989e-05
5.80996889305887e-06,6.12823368273626e-06,1.06327027479174e-05,2.25709053237126e-05
8.65163273244111e-06,7.23985243057406e-06,1.14812685354836e-05,2.73727536984988e-05
5.10005014673098e-06,5.58249074184464e-06,1.04735467925601e-05,2.11560876811357e-05
1.0695304829641e-05,1.09620487536802e-05,1.53057159347994e-05,3.69630695181205e-05
9.42038439716496e-06,1.32389993084713e-05,1.54560178782801e-05,3.81154015839164e-05
4.09530040882794e-06,4.94081821829469e-06,9.16050710995409e-06,1.81966257370767e-05
8.30214081399308e-06,7.63269607888521e-06,1.15788482305553e-05,2.75136851234336e-05
7.33032030364119e-06,7.41204476367711e-06,1.10901971762374e-05,2.58325622435557e-05
6.32837556635844e-06,5.95583794321761e-06,9.63504558203927e-06,2.19192590916153e-05
9.3283276530294e-06,8.32137483993196e-06,1.26960769753064e-05,3.03457794682677e-05
5.52643514398091e-06,7.35615800200426e-06,1.10184607352371e-05,2.39010538812222e-05
9.25645853352959e-06,6.88316903408283e-06,1.19758824093098e-05,2.81155099769222e-05
4.52102470184504e-06,5.818334295725e-06,9.41081617620422e-06,1.97501751737743e-05
3.61461432009772e-06,4.62135922662321e-06,9.06658459427191e-06,1.73025581409928e-05
3.4347767662628e-06,4.06302133366196e-06,7.76830050621782e-06,1.52660986061426e-05
3.5741854709197e-06,4.64222137617549e-06,8.5324468450233e-06,1.67488536921185e-05
3.67000452559482e-06,4.3525258392264e-06,8.94738860991192e-06,1.69699189747331e-05
3.53815059891633e-06,4.21871873091338e-06,8.99256773835125e-06,1.6749437068181e-05
3.52801888079249e-06,4.04622149397156e-06,8.44305642462744e-06,1.60172967993915e-05
3.98518531271406e-06,4.21216709867781e-06,8.49553662457342e-06,1.66928890359653e-05
4.32514043412598e-06,4.90289726789944e-06,9.98269071962684e-06,1.92107284216523e-05
3.65045131767412e-06,4.11375919616689e-06,8.77715323433437e-06,1.65413637481754e-05
3.74811961011426e-06,4.29628297475919e-06,8.93273154394525e-06,1.69771341288187e-05
3.9255580749822e-06,4.0958731718538e-06,8.09773591072081e-06,1.61191671575568e-05
3.98123335888702e-06,4.18111697894816e-06,8.99181500907077e-06,1.71541653469059e-05
5.91165920242259e-06,7.02593609359375e-06,1.1501222253088e-05,2.44388175491044e-05
1.27844820181859e-05,1.76885398478542e-05,1.98203305511165e-05,5.02933524171566e-05
9.74920216849425e-06,1.15132096574774e-05,1.45763112318305e-05,3.58387230578022e-05
5.5924476631561e-06,5.62230615654309e-06,9.64617551504416e-06,2.08609293347433e-05
4.01623435019998e-06,4.45970271505265e-06,8.93199418800846e-06,1.74079312532611e-05
7.95979272294989e-06,5.78848995659026e-06,1.03644829057825e-05,2.41127655853227e-05
8.50573414565869e-06,7.70971614675698e-06,1.12674691767089e-05,2.74829194691246e-05
7.71563162589254e-06,7.22569310989047e-06,1.14826565038772e-05,2.64239812396602e-05
7.57846602394875e-06,8.38775463215409e-06,1.06865056470451e-05,2.6652726303148e-05
5.46543700956542e-06,4.27169940961896e-06,8.99141106812135e-06,1.87285474873057e-05
4.6936014619285e-06,5.16673012696135e-06,9.25516934180956e-06,1.91155009306994e-05
4.95839647260629e-06,4.28733044630139e-06,8.55298483199416e-06,1.77987117509018e-05
4.19999480696801e-06,4.44583833143212e-06,8.69498461127391e-06,1.7340817749674e-05
3.67190971366344e-06,3.66425965846175e-06,8.25498272061354e-06,1.55911520927387e-05
3.64386639911283e-06,3.61849922608489e-06,7.81799456592067e-06,1.50803601911184e-05
3.51856152357354e-06,3.52135269158445e-06,7.96278044323088e-06,1.50026946583889e-05
3.63483728248794e-06,3.44434257613458e-06,8.03286691342451e-06,1.5112046772047e-05
4.63996802530796e-06,5.6074177530502e-06,9.86462386346983e-06,2.0112009641828e-05
3.97831629317987e-06,3.92986587261882e-06,8.56848540447341e-06,1.64766675702721e-05
3.59062413173534e-06,3.88821038336176e-06,8.13116839280966e-06,1.56100029079068e-05
3.57010943995369e-06,3.92854467780501e-06,8.42756479635354e-06,1.59262189141122e-05
3.57586043088828e-06,4.04749574518503e-06,8.07928928373888e-06,1.57026454598122e-05
3.53543505431354e-06,4.19649550820834e-06,8.41475675389174e-06,1.61466873164136e-05
3.60438743187669e-06,3.85069242831576e-06,8.22159567321371e-06,1.56766755334062e-05
3.70854237214336e-06,3.84236581129814e-06,8.69031592737344e-06,1.6241224110815e-05
3.63823236619507e-06,3.94517578434951e-06,8.86796789071089e-06,1.64513760412555e-05
1.41380667574856e-05,8.89808899966834e-06,1.26291979362247e-05,3.56653536933786e-05
1.63407756725232e-05,1.66338577869112e-05,1.34630325951669e-05,4.64376660546013e-05
3.71771690832769e-06,5.67871234099046e-06,8.21608873033416e-06,1.76125179796523e-05
3.31345610978571e-06,5.27807195018084e-06,8.73650037786609e-06,1.73280284378326e-05
3.53218869327106e-06,4.79306150444641e-06,8.388354236024e-06,1.67136044337415e-05
3.36216870726609e-06,4.7922813424993e-06,8.18831012868386e-06,1.63427601784493e-05
3.13618003666841e-06,4.59286555038665e-06,7.59710160699572e-06,1.53261471940508e-05
3.42846685976667e-06,4.55722793035732e-06,8.35886158583648e-06,1.63445563759605e-05
3.43741990036845e-06,4.32961976782302e-06,7.97489973885253e-06,1.5741939407044e-05
3.6192825428351e-06,4.69758865251596e-06,8.2306814120974e-06,1.65475526074485e-05
3.56491869267339e-06,4.53906879869866e-06,8.14639974189341e-06,1.62503872332655e-05
3.46484842452697e-06,4.58048298351527e-06,8.29130392115399e-06,1.63366353291962e-05
3.54328539058745e-06,4.44470438196083e-06,8.51006635736829e-06,1.64980561299166e-05
5.94306930474917e-06,5.42180230454827e-06,8.59618304626384e-06,1.99610546555613e-05
5.27496102496716e-06,4.59152394518882e-06,8.76051717751391e-06,1.86270021476699e-05
4.37468948744217e-06,3.9014296355751e-06,8.02665095258469e-06,1.6302770075602e-05
3.86875696968939e-06,3.70253337031573e-06,8.01490530322542e-06,1.55861956432305e-05
3.64083603521291e-06,3.31242218412949e-06,7.7704634392028e-06,1.47237216585452e-05
6.73961334053964e-06,7.33574496198849e-06,1.17082545571882e-05,2.57836128597163e-05
1.6971375602821e-05,1.42291397869342e-05,1.72345025278417e-05,4.8435017917597e-05
7.77016803730171e-06,6.18704456786051e-06,1.00826974153813e-05,2.40399100205435e-05
4.90924309448327e-06,4.43498187684511e-06,8.73679281682275e-06,1.80810177881511e-05
9.57328797911927e-06,8.872271982031e-06,1.38690479612295e-05,3.23146079223798e-05
8.07517435855462e-06,4.81645813513439e-06,1.02087145413807e-05,2.31003470350697e-05
7.422019068684e-06,6.2328066069271e-06,1.06855201122208e-05,2.43403457878319e-05
3.16896734456858e-06,3.24385530310922e-06,7.9385275876327e-06,1.43513502353105e-05
3.93590929844838e-06,3.36378163484436e-06,7.26140049919529e-06,1.4561091432488e-05
3.22866711804962e-06,3.39705929459374e-06,7.047779345136e-06,1.36735057577794e-05
3.16037127601142e-06,3.2894958774465e-06,7.58580129211465e-06,1.40356684455726e-05
5.96228756355376e-06,5.44933975593197e-06,9.10398236825553e-06,2.05156096877413e-05
5.11744122439175e-06,4.75443424231961e-06,8.61085727789713e-06,1.84827327446085e-05
4.48705316923171e-06,4.24072037255178e-06,8.82003722826419e-06,1.75478107700477e-05
3.53781524637302e-06,3.42503300890744e-06,7.77453647626581e-06,1.47373847315463e-05
3.5531510045695e-06,3.5248094118298e-06,8.23822875659163e-06,1.53161891729909e-05
4.37046520277968e-06,3.96246384944774e-06,8.28701587312682e-06,1.66199449253542e-05
3.26710643338118e-06,3.34640530408198e-06,7.56882163124604e-06,1.41823333687092e-05
8.17377238185985e-06,5.81895175594726e-06,9.88781599043622e-06,2.38805401282433e-05
8.6148819226753e-06,7.45605119758887e-06,1.15200279811825e-05,2.75909611014466e-05
8.64925893708059e-06,7.6071434093579e-06,1.2623099578667e-05,2.88795019251055e-05
3.8082347217881e-06,3.65962824431708e-06,7.63522378715437e-06,1.51030867532596e-05
3.60019903607997e-06,3.61399027389306e-06,7.72587874733513e-06,1.49400680573082e-05
3.70925072242842e-06,3.32187318811595e-06,7.73160801281127e-06,1.47627319233556e-05
3.36999210171809e-06,3.65467810041897e-06,7.89979256739756e-06,1.49244627695346e-05
3.49095032084566e-06,3.33298805011119e-06,7.95555818428336e-06,1.47794965552402e-05
4.06387719275297e-06,3.8751600117462e-06,7.95679339098862e-06,1.58958305954878e-05
3.29025671509807e-06,3.34977024972936e-06,7.72658842596867e-06,1.43666153907961e-05
3.18144015305854e-06,3.39817172761947e-06,7.56833727486394e-06,1.41479491555419e-05
3.2967390166956e-06,3.27636607534522e-06,7.46170390133544e-06,1.40348089933763e-05
4.02414231531141e-06,4.07939682531998e-06,8.1327166973353e-06,1.62362558379667e-05
3.76671787744292e-06,3.61200250740807e-06,7.76250449826769e-06,1.51412248831187e-05
3.23849810707187e-06,3.29521184677767e-06,7.32111015480442e-06,1.3854820108654e-05
2.56782172611884e-05,2.14318387473082e-05,2.38317533893816e-05,7.09418093978782e-05
2.6659808521916e-05,2.35724609774634e-05,2.07260608702107e-05,7.095833036959e-05
3.79795418374767e-05,1.93077605786524e-05,2.54242577833455e-05,8.27115601994746e-05
5.97304885820013e-06,5.3264524553122e-06,1.28116327395087e-05,2.41111340530211e-05
3.48424254341672e-06,3.10502924018005e-06,8.98873925321501e-06,1.55780110368118e-05
4.05502944798429e-06,3.09825807233231e-06,9.17902685929223e-06,1.63323143796088e-05
3.54002551551675e-06,3.03339759794027e-06,8.92344343628232e-06,1.54968665497393e-05
3.43280217516542e-06,3.11232349404375e-06,8.82556183088501e-06,1.53706875000942e-05
3.38714666497584e-06,3.04553541423987e-06,8.99004158583554e-06,1.54227236650513e-05
3.27709226755817e-06,2.95951978477557e-06,8.93649018026449e-06,1.51731022325982e-05
3.35380745934879e-06,2.97540647955897e-06,8.84480112340762e-06,1.51740150623154e-05
3.3492278418329e-06,2.99757862969107e-06,8.96382925376479e-06,1.53106357252888e-05
3.39160319566093e-06,3.03887216273693e-06,9.04897621826758e-06,1.54794515766654e-05
3.4232389684893e-06,3.06186742667483e-06,9.12250639838699e-06,1.56076127935511e-05
4.40591063858512e-06,3.11547895466776e-06,9.27659300399663e-06,1.67979825972495e-05
6.80004192058842e-06,6.89926692046416e-06,1.26925064185802e-05,2.63918152596328e-05
3.39400072018322e-06,4.44666607849954e-06,8.74434373685442e-06,1.65850105355372e-05
3.30879708194583e-06,3.87783341051214e-06,8.08174781905056e-06,1.52683783115085e-05
3.49262842431038e-06,4.1653723492221e-06,9.23294248357194e-06,1.68909432571044e-05
3.50267817710875e-06,4.27604516776053e-06,8.1597607287568e-06,1.59384840736261e-05
3.38412806186969e-06,3.83666033259091e-06,8.39931630803445e-06,1.5620104702495e-05
3.58986021504398e-06,3.92455966731446e-06,8.63058083899758e-06,1.6145000721356e-05
3.36676846832441e-06,4.08909524229107e-06,8.72523981094914e-06,1.61811035215646e-05
3.53240190073326e-06,4.04014825866343e-06,8.19172747024304e-06,1.57642776296397e-05
3.47735897764925e-06,4.21003900207571e-06,9.1025317962654e-06,1.67899297759904e-05
3.23208597199639e-06,4.37146735131238e-06,8.47280773197648e-06,1.60763610552852e-05
3.23239685793677e-06,4.19853111558338e-06,8.30664370709163e-06,1.57375716806118e-05
3.67463891011965e-06,4.76419680772168e-06,8.8685101437027e-06,1.7307345861544e-05
3.9346181989904e-06,4.79031997540005e-06,1.00688168895318e-05,1.87937550639223e-05
3.7283199912423e-06,5.68648287606028e-06,9.6071292351984e-06,1.9021932102501e-05
3.69934083584576e-06,5.06857869898883e-06,9.24377914359721e-06,1.80116986784318e-05
8.07207046505785e-06,5.66585194200469e-06,9.97467385914733e-06,2.37125962662099e-05
7.77289754531694e-06,7.96553535445606e-06,1.07447967893856e-05,2.64832296891586e-05
3.43916153268581e-06,3.74193946929287e-06,8.17973613595777e-06,1.53608371379365e-05
3.64402150817909e-06,4.73438090791397e-06,8.41280132774734e-06,1.67912037438404e-05
3.66333635819882e-06,4.76279879744597e-06,8.99439810336047e-06,1.74205332590053e-05
3.66324041526107e-06,4.60606804066979e-06,8.92053863840071e-06,1.71898470943316e-05
5.75564639263295e-06,4.7171693955744e-06,1.0208282500354e-05,2.06810982885614e-05
4.01116993954147e-06,3.23775648235709e-06,7.87466082387566e-06,1.51235872457742e-05
5.01492955811661e-06,4.3672810663724e-06,9.28940001044313e-06,1.86716106349321e-05
7.80139918131694e-06,5.09936659778901e-06,9.75151947594934e-06,2.26522852550553e-05
7.29085217616372e-06,4.98403450104686e-06,1.02530462471235e-05,2.25279329243341e-05
5.91648586764016e-05,4.50963844707553e-05,7.10601002146087e-05,0.000175321343361766
7.13021854932291e-06,4.60755387887125e-06,1.06336262860582e-05,2.23713987142523e-05
4.67666010096378e-06,3.47513764750724e-06,8.73403683617498e-06,1.6885834584646e-05
3.46832918379353e-06,3.16921398039398e-06,9.03370133415307e-06,1.56712444983406e-05
4.14157348290654e-06,3.43651251525747e-06,8.94532586328999e-06,1.6523411861454e-05
4.29675507903755e-06,3.48854023762554e-06,8.73076710910299e-06,1.65160624257661e-05
3.89559876505141e-06,3.32944216999223e-06,8.70995586481514e-06,1.59349967998588e-05
4.61242260877513e-06,3.57119411765879e-06,9.43190860429514e-06,1.76155253307291e-05
5.33212287946557e-06,4.44876656783052e-06,1.05544149148905e-05,2.03353043621865e-05
7.4466459355788e-06,4.96705507962067e-06,9.95018258782735e-06,2.23638836030268e-05
3.22935830618735e-06,2.92199084998224e-06,8.02246704907944e-06,1.4173816205249e-05
7.80751283284604e-06,5.03111535521787e-06,1.03385087638647e-05,2.31771369519286e-05
5.89329064812743e-06,5.37598904970783e-06,1.0185336943889e-05,2.14546166417243e-05
8.51142562454101e-06,5.08296070382665e-06,1.0019811475879e-05,2.36141978042466e-05
3.87895710867302e-06,3.41437026107242e-06,8.46134905573575e-06,1.57546764254812e-05
5.96253675033191e-06,4.28441186322117e-06,8.91026619211089e-06,1.9157214805664e-05
4.83298202558262e-06,4.11103830140797e-06,9.02901440956093e-06,1.79730347365515e-05
3.75186274725028e-06,3.39718538675753e-06,7.92523087080143e-06,1.50742790048092e-05
4.67043387800966e-06,4.51743473223815e-06,8.9018419303431e-06,1.80897105405909e-05
8.74410872815682e-06,5.0975388019548e-06,1.00591757852316e-05,2.39008233153433e-05
4.29280147450025e-06,3.83617135161844e-06,8.5180831049456e-06,1.66470559310643e-05
6.29556451546517e-06,5.73176074877214e-06,1.04537931632391e-05,2.24811184274764e-05
3.93072672034884e-06,3.48869317923329e-06,8.76707722894916e-06,1.61864971285313e-05
6.94292840103362e-06,5.63234326318776e-06,9.61132351320418e-06,2.21865951774256e-05
7.55997813788126e-06,5.40197552621244e-06,9.92894189399147e-06,2.28908955580852e-05
6.84267380642254e-06,5.03893810582823e-06,1.03308282041658e-05,2.22124401164165e-05
5.08367744593817e-06,4.27900255936489e-06,8.66943900941941e-06,1.80321190147225e-05
5.98460254747919e-06,5.51872980451663e-06,9.12204769175222e-06,2.0625380043748e-05
4.89881634983935e-06,4.13944081485036e-06,8.56275977524146e-06,1.76010169399312e-05
4.32890626786049e-06,3.77894758192341e-06,7.51606680149338e-06,1.56239206512773e-05
4.87986278878876e-06,4.35833557437579e-06,7.8306523836786e-06,1.70688507468431e-05
5.54411852845368e-06,5.28562666324151e-06,8.94721853630957e-06,1.97769637280048e-05
8.00181527042602e-06,6.39687462156372e-06,9.95280548048451e-06,2.43514953724743e-05
8.39945994376411e-06,6.62845272181858e-06,1.06676491889754e-05,2.56955618545581e-05
9.11110629123762e-06,6.02417774457543e-06,9.45451591005824e-06,2.45897999458713e-05
1.11940071460806e-05,8.12098235232408e-06,1.14090713096584e-05,3.0724060808063e-05
6.55107079150125e-06,5.38578222928748e-06,9.92928172293905e-06,2.18661347437278e-05
8.72567626889647e-06,5.25028471268635e-06,9.49233710891616e-06,2.3468298090499e-05
5.28171219083764e-06,4.12725420685792e-06,8.474939495395e-06,1.78839058930906e-05
4.59888113556071e-06,3.9035577550785e-06,8.46606197457576e-06,1.6968500865215e-05
4.4576615610735e-06,4.03103113483237e-06,8.42570497417439e-06,1.69143976700803e-05
1.29401419817389e-05,7.74468779589962e-06,1.20852431682599e-05,3.27700729458984e-05
6.7543382735962e-06,5.22465788892454e-06,9.69292039464792e-06,2.16719165571687e-05
1.29764670611443e-05,8.96639755740966e-06,1.39841040206686e-05,3.59269686392226e-05
8.12152848182558e-06,5.9732342551885e-06,1.1604542461591e-05,2.56993051986051e-05
8.7533074380846e-06,6.07604044363209e-06,1.07883322181065e-05,2.56176800998232e-05
8.32822964794755e-06,5.77778585024562e-06,1.02472251304681e-05,2.43532406286612e-05
7.70839142050361e-06,6.23226858154803e-06,1.07189006657607e-05,2.46595606678124e-05
6.32598272334278e-06,5.69737671701626e-06,9.52369560210389e-06,2.15470550424629e-05
7.26725024167338e-06,6.12182736275542e-06,1.06715591127317e-05,2.40606367171605e-05
1.12568539891547e-05,8.01556221708979e-06,1.17381416967847e-05,3.10105579030292e-05
9.1474845860106e-06,6.69633013574407e-06,1.24630977435986e-05,2.83069124653533e-05
6.77470476820752e-06,5.63388483833175e-06,9.39387301356003e-06,2.18024626200993e-05
6.23802946421577e-06,6.07248472908845e-06,9.67635702418795e-06,2.19868712174922e-05
5.98160120911468e-06,5.39612448023228e-06,9.43743064808857e-06,2.08151563374355e-05
7.41593945771494e-06,6.64263113793919e-06,1.07551630447858e-05,2.481373364044e-05
6.95831359611153e-06,7.00028312158897e-06,1.0521616791082e-05,2.44802135087825e-05
6.48581689768407e-06,5.84483356447169e-06,9.59447474359771e-06,2.19251252057535e-05
6.3279386365535e-06,5.76508723404414e-06,9.19543241887146e-06,2.12884582894691e-05
5.25208263630435e-06,4.80125953846519e-06,9.66346229381249e-06,1.9716804468582e-05
7.94236974365757e-06,6.97794148124367e-06,9.54888719305426e-06,2.44691984179555e-05
6.96339559485492e-06,5.09299013419968e-06,9.47542415726212e-06,2.15318098863167e-05
7.31410859205252e-06,7.08043990739732e-06,1.00908188237735e-05,2.44853673232233e-05
1.42091726696787e-05,1.05954965870669e-05,1.75944140171736e-05,4.23990832739192e-05
9.02087828814432e-06,6.43332748667581e-06,1.02661830468347e-05,2.57203888216548e-05
6.22004696002436e-06,4.73439905444143e-06,9.00566192872646e-06,1.99601079431922e-05
4.55629305328508e-06,2.92155533785804e-06,7.79061546672419e-06,1.52684638578673e-05
9.33155983461541e-05,8.5135359598309e-05,9.07172710844452e-05,0.000269168229028908
4.309049358159e-05,3.64024003679519e-05,3.77468473139229e-05,0.000117239741263465
5.02399047242934e-06,3.94842163166759e-06,8.91051368102317e-06,1.78829257851201e-05
5.51283588809612e-06,3.93708089833933e-06,9.54814698165693e-06,1.89980637680924e-05
1.23991063370249e-05,1.05983434726144e-05,1.75061709550083e-05,4.05036207646476e-05
6.55774553790195e-06,5.94698101722528e-06,1.06143961053324e-05,2.31191226604596e-05
4.64269572589313e-06,4.21126415552386e-06,9.5344304734199e-06,1.83883903548369e-05
3.23788020917614e-06,3.05785908498833e-06,8.24737346964732e-06,1.45431127638118e-05
3.37289420685689e-06,3.14681422874515e-06,8.16614342823605e-06,1.46858518638381e-05
4.03516445581659e-06,3.30451003087603e-06,8.47959959512664e-06,1.58192740818193e-05
3.62663407492671e-06,3.43835700500066e-06,8.32353295769749e-06,1.53885240376249e-05
3.23238966532654e-06,3.10108999554723e-06,8.19670761376347e-06,1.45301872746372e-05
3.20433732908481e-06,2.97075662904883e-06,8.12349083497648e-06,1.42985847931101e-05
3.03627402231435e-06,3.08704514507217e-06,7.68948372769264e-06,1.38128028950792e-05
3.0700951813325e-06,2.99673284976205e-06,7.39474692072767e-06,1.34615749518222e-05
3.14741697857954e-06,2.86310205036273e-06,7.9092541039167e-06,1.3919773132859e-05
3.05668796986444e-06,2.9681740808365e-06,7.66799270844345e-06,1.36928547591444e-05
3.18305699788836e-06,2.8907988777402e-06,8.01434084339407e-06,1.40881967190226e-05
2.38735232507188e-05,1.53619546352669e-05,2.25591134968949e-05,6.17945913828807e-05
4.11917649723647e-06,3.22701069960469e-06,9.65964717334249e-06,1.70058343701837e-05
3.26358086674165e-06,2.93967673453665e-06,8.39036686194686e-06,1.45936244632252e-05
4.4337191684247e-06,3.15276266099075e-06,8.73875912547573e-06,1.63252409548912e-05
3.36930739288527e-06,2.92215706025399e-06,8.22091996230585e-06,1.45123844154451e-05
3.24872438698876e-06,3.0384646331063e-06,8.25291495757182e-06,1.45401039776669e-05
3.33967477709948e-06,3.0383285302949e-06,8.11776651554859e-06,1.4495769822943e-05
3.21511101751028e-06,2.9634770588766e-06,7.90883106169503e-06,1.40874191380819e-05
3.23415884252518e-06,3.02911478640409e-06,8.25037291705876e-06,1.4513646545988e-05
3.45532714763521e-06,2.96866132805719e-06,8.50149113701619e-06,1.49254796127086e-05
3.48458894595534e-06,2.87060649062287e-06,8.29497109963254e-06,1.46501665362108e-05
3.26804534698656e-06,2.87691236774216e-06,8.09972433687352e-06,1.42446820516022e-05
3.45873684433168e-06,3.13970398489247e-06,8.63942401293102e-06,1.52378648421552e-05
3.40134163087829e-06,3.00539957123313e-06,8.13489502434197e-06,1.45416362264534e-05
4.09878571510755e-06,2.9958507549661e-06,8.35695578563993e-06,1.54515922557136e-05
5.59131294547539e-06,4.05381547524236e-06,9.72317290633613e-06,1.93683013270539e-05
4.56800825532583e-06,3.30433433739178e-06,9.34406820025592e-06,1.72164107929735e-05
3.41277323016923e-06,2.92248348572619e-06,8.38643819862216e-06,1.47216949145176e-05
4.02076403850901e-06,3.31843187711641e-06,9.11346015247328e-06,1.64526560680987e-05
1.52285007373925e-05,1.52367407056864e-05,1.33020983916088e-05,4.37673398346877e-05
4.79155618740042e-06,3.16120646080978e-06,9.16486007535164e-06,1.71176227235618e-05
4.74975798430623e-06,3.13038669429129e-06,8.15617265879844e-06,1.6036317337396e-05
4.21761931511909e-06,3.00975395616296e-06,8.8578744560328e-06,1.60852477273149e-05
4.40286735621018e-06,3.64202507482268e-06,9.3342701909727e-06,1.73791626220056e-05
1.01133383793882e-05,6.47531916082601e-06,1.40316154390618e-05,3.0620272979276e-05
8.57585716015894e-06,5.24890164753958e-06,1.09351769371594e-05,2.47599357448579e-05
5.03495387220168e-06,4.06013928521004e-06,9.00626074424445e-06,1.81013539016562e-05
2.14080932132968e-05,1.34568964313932e-05,1.6503874340175e-05,5.1368863984865e-05
7.18243054324026e-06,4.33924489961273e-06,8.98677141629841e-06,2.05084468591514e-05
7.26818598514565e-06,4.64337412822281e-06,9.80072046171003e-06,2.17122805750785e-05
4.27304104162376e-06,3.60095324574917e-06,8.78218814657748e-06,1.66561824339504e-05
1.36553295049603e-05,8.00642647092659e-06,1.42797297671156e-05,3.59414857430025e-05
4.44061684504819e-06,3.54567983528404e-06,1.06548105622469e-05,1.86411072425791e-05
3.55903673106669e-06,2.99536069744746e-06,8.43531338791495e-06,1.49897108164291e-05
4.16842295228837e-06,3.46463499329157e-06,8.48304764605951e-06,1.61161055916394e-05
3.53077971548453e-06,3.0266880918006e-06,8.4410134968655e-06,1.49984813041506e-05
3.56116630273637e-06,2.95730543235364e-06,8.81745980506563e-06,1.53359315401556e-05
3.68901325132144e-06,3.30609324954148e-06,8.79246035233497e-06,1.57875668531979e-05
4.98792680681949e-06,4.64331522078469e-06,9.79761230118739e-06,1.94288543287916e-05
5.7542431244536e-06,4.14404407354943e-06,9.22920992701356e-06,1.91274971250166e-05
3.39409842406998e-06,3.08134156208802e-06,7.74195083405074e-06,1.42173908202087e-05
8.9834189308985e-06,7.32604606870674e-06,1.13459341759974e-05,2.76553991756027e-05
4.08852125764527e-06,3.2859991732304e-06,7.73174029504994e-06,1.51062607259256e-05
5.98158086200923e-06,5.41740453091661e-06,9.73516513799169e-06,2.11341505309175e-05
1.01966940341754e-05,6.24023725063701e-06,1.26092933688049e-05,2.90462246536174e-05
4.78940108802307e-06,3.97025511050806e-06,9.36624362868418e-06,1.81258998272153e-05
8.04100868473205e-06,5.55160407080259e-06,1.1002871859406e-05,2.45954846149406e-05
5.40085204346688e-06,5.01689607010671e-06,9.89712075531226e-06,2.03148688688858e-05
5.65670162134703e-06,3.91980086900817e-06,9.54340283443398e-06,1.91199053247892e-05
4.45767558317185e-06,4.0347109985841e-06,1.00302714326271e-05,1.8522658014383e-05
4.67698127514245e-06,3.68409345310736e-06,9.53706296087032e-06,1.78981376891201e-05
6.16001406128304e-06,4.70120660949518e-06,1.03921794367804e-05,2.12534001075586e-05
6.01304100562295e-06,5.46845823589174e-06,9.70677753372991e-06,2.11882767752446e-05
6.71724369771709e-06,4.96462416008667e-06,1.05681827820569e-05,2.22500506398607e-05
6.75682509955355e-06,5.45019481824642e-06,1.14865205271546e-05,2.36935404449546e-05
6.29074967724313e-06,4.16905689883773e-06,9.83365916669259e-06,2.02934657427734e-05
3.6783832872814e-06,3.31831580401758e-06,8.58442655758945e-06,1.55811256488884e-05
8.61228399945595e-06,5.25497172573323e-06,1.14639138704738e-05,2.5331169595663e-05
6.04102890333147e-06,3.93167668520121e-06,8.67687778330297e-06,1.86495833718356e-05
5.09576501936435e-06,3.83623492742675e-06,9.14326420623614e-06,1.80752641530272e-05
8.31219613898314e-06,5.05068284379034e-06,1.00108182036381e-05,2.33736971864115e-05
6.54485076967442e-06,4.23902938329372e-06,9.65535832508568e-06,2.04392384780538e-05
4.86858347412289e-06,3.85660607273211e-06,9.09491359495815e-06,1.78201031418132e-05
4.64925814908218e-06,3.82342087521067e-06,8.78476615952351e-06,1.72574451838164e-05
5.62463442320652e-06,4.31107132305361e-06,8.81181546877187e-06,1.8747521215032e-05
7.15475789622823e-06,7.3832968837039e-06,1.06077514183037e-05,2.51458061982358e-05
5.62667752594768e-06,4.8860735456291e-06,9.93681946622541e-06,2.04495705378022e-05
5.48347626064889e-06,4.83472223621324e-06,9.14167679198633e-06,1.94598752888485e-05
4.40105019086555e-06,4.46620413824889e-06,8.84671752685782e-06,1.77139718559723e-05
4.94722003078091e-06,4.51526223334727e-06,8.86669522190102e-06,1.83291774860292e-05
6.60460726600069e-06,4.92454790788981e-06,1.04121646863654e-05,2.19413198602559e-05
4.94510536513275e-06,4.00405774359449e-06,9.49701635665198e-06,1.84461794653792e-05
4.56185060693001e-06,3.86067075692903e-06,8.76305835593454e-06,1.71855797197936e-05
5.68618505797717e-06,3.7897502942715e-06,9.66132537599524e-06,1.91372607282439e-05
8.33892128124679e-06,6.83874623680472e-06,1.09223276906528e-05,2.60999952087043e-05
6.67565713001049e-06,5.21991352789767e-06,9.17701601794492e-06,2.10725866758531e-05
5.79127443727125e-06,4.2113660771238e-06,8.99042744240594e-06,1.8993067956801e-05
5.50083569937199e-06,5.16654318833222e-06,9.25654301251729e-06,1.99239219002215e-05
7.38882008241473e-06,5.51106688848286e-06,1.02031399019624e-05,2.310302687286e-05
5.61038616111983e-06,4.41768203366103e-06,9.09193071875212e-06,1.9119998913533e-05
6.07107762602224e-06,3.93502095243558e-06,9.57057658483091e-06,1.95766751632887e-05
5.37618218202781e-06,4.62763758256676e-06,1.01101298211847e-05,2.01139495857793e-05
8.5222027958313e-06,7.09579449203949e-06,1.16382513046589e-05,2.72562485925296e-05
6.75619469997102e-06,5.74605565088751e-06,1.11061943331453e-05,2.36084446840038e-05
8.36677557361826e-06,3.87606458170292e-06,1.01435051891459e-05,2.23863453444671e-05
6.0335260024334e-06,4.6901686824904e-06,9.08031407868581e-06,1.98040087636096e-05
4.74448317653521e-06,4.37112390270403e-06,9.17447330862678e-06,1.8290080387866e-05
6.07394496698051e-06,4.7233792549027e-06,9.34298521101704e-06,2.01403094329002e-05
1.32475042154736e-05,8.32554942589757e-06,1.08526712980697e-05,3.24257249394408e-05
4.61947275008873e-06,3.49346246674026e-06,9.21616010322785e-06,1.73290953200568e-05
6.33049657427822e-06,4.27129853157474e-06,9.18138523790166e-06,1.97831803437546e-05
6.56512041083e-06,5.26531363103664e-06,9.45594689764405e-06,2.12863809395107e-05
1.20066235541778e-05,1.05508055547529e-05,1.08284245175885e-05,3.33858536265191e-05
4.99454297707539e-06,3.83961193286481e-06,9.06751661459847e-06,1.79016715245387e-05
5.65356739657834e-06,3.9080679685992e-06,8.89903026502233e-06,1.84606656301999e-05
4.84317068567855e-06,3.44252282530306e-06,9.18524928361859e-06,1.74709427946002e-05
3.79025529250089e-06,3.21584933898098e-06,8.3289301456143e-06,1.53350347770962e-05
5.01736716827685e-06,3.99050544695077e-06,8.90317189577651e-06,1.79110445110041e-05
5.73148541547463e-06,3.86901288426246e-06,8.84096263346461e-06,1.84414609332017e-05
4.72846817270314e-06,3.41608492193691e-06,8.40263185684941e-06,1.65471849514895e-05
5.56892559780755e-06,3.76106360229741e-06,9.42776272241517e-06,1.87577519225201e-05
6.69561489475312e-06,4.72865834478978e-06,9.14746515243552e-06,2.05717383919784e-05
5.53968656738268e-06,3.71122699822847e-06,8.38889052939157e-06,1.76398040950027e-05
3.43512988767833e-06,2.9869577152835e-06,7.8919358321782e-06,1.431402343514e-05
3.38549344886691e-06,3.01498831410226e-06,7.80131920582004e-06,1.42018009687892e-05
5.37495027241464e-06,4.443175467105e-06,8.84806766713855e-06,1.86661934066582e-05
4.84888678605884e-06,4.20719356775589e-06,8.62223053075901e-06,1.76783108845737e-05
4.53217730889388e-06,3.85394074850427e-06,8.37449631875531e-06,1.67606143761535e-05
4.68376796093863e-06,3.58269102196856e-06,8.17507532832608e-06,1.64415343112333e-05
4.69869589481946e-06,4.17302063453166e-06,8.90597893434944e-06,1.77776954637006e-05
4.98383017108843e-06,3.72312642583849e-06,8.8558608484188e-06,1.75628174453457e-05
5.93219821479299e-06,4.3700861618035e-06,9.77243834336777e-06,2.00747227199643e-05
4.75233763788604e-06,3.45865031121564e-06,8.68826308593073e-06,1.68992510350324e-05
5.90921760102877e-06,3.97535806460011e-06,9.31636496084312e-06,1.9200940626472e-05
4.35324277113601e-06,3.37554682362327e-06,8.53432045128543e-06,1.62631100460447e-05
4.1337185244455e-06,3.35927090410108e-06,8.04943666221686e-06,1.55424260907634e-05
6.7730568405576e-06,4.5795502389277e-06,1.06817261367174e-05,2.20343332162026e-05
5.24181185020124e-06,3.83188964228145e-06,8.91901456647979e-06,1.79927160589625e-05
3.89838593955924e-06,3.03600524040843e-06,8.30290250201417e-06,1.52372936819818e-05
4.45676888179777e-06,3.62903460679706e-06,8.67270514109119e-06,1.6758508629686e-05
1.80042251222926e-05,1.10712578078989e-05,1.82735033323925e-05,4.73489862625839e-05
8.87678754776398e-06,9.66647521517668e-06,1.20403773374488e-05,3.05836401003894e-05
5.04625023342187e-06,3.70853805482039e-06,7.84313955283697e-06,1.65979278410792e-05
3.09992041681002e-06,2.66643511101048e-06,7.51747431317e-06,1.32838298409905e-05
3.1183297490059e-06,2.56345539498548e-06,7.10720067642287e-06,1.27889858204142e-05
1.08753810861568e-05,6.63640151314464e-06,9.58977302194188e-06,2.71015556212433e-05
5.65562106175865e-06,3.85756795736417e-06,9.38258837982207e-06,1.88957773989449e-05
4.84796615699311e-06,3.45703986267515e-06,8.50124422661594e-06,1.68062502462842e-05
3.96392607211947e-06,3.13804184112485e-06,7.47600286703104e-06,1.45779707802754e-05
4.46653099895127e-06,3.76193657871785e-06,8.54647827888135e-06,1.67749458565505e-05
4.39685622232454e-06,3.41859080926348e-06,7.75859918939911e-06,1.55740462209871e-05
4.0602169126217e-06,2.94910976205687e-06,7.77006281909408e-06,1.47793894937727e-05
4.10953879979537e-06,3.47955092470588e-06,7.8718883603456e-06,1.54609780848468e-05
3.4837462874087e-06,3.01464429739503e-06,7.72559749774622e-06,1.42239880825499e-05
3.98212393024483e-06,3.23172840801972e-06,7.55544661824449e-06,1.4769298956509e-05
4.61853703019414e-06,4.20875074721817e-06,9.01957758010547e-06,1.78468653575178e-05
4.18914982929918e-06,3.66625475973947e-06,7.94020841455738e-06,1.5795613003596e-05
5.73925835647252e-06,4.07105136329132e-06,8.61222296030388e-06,1.84225326800677e-05
5.0021349730866e-06,3.26147601303607e-06,8.32666048327538e-06,1.6590271469398e-05
7.29826028246897e-05,6.43155412898061e-05,3.43999585621758e-05,0.000171698102676672
1.10381197545794e-05,9.24445163308205e-06,1.70876361901107e-05,3.73702075777721e-05
1.14431506498429e-05,9.64662641865803e-06,1.38652016571464e-05,3.49549787256473e-05
1.31214911938911e-05,1.16396931477081e-05,2.15249369398506e-05,4.62861212814498e-05
3.5836575386686e-06,3.30146328621393e-06,7.86695007755847e-06,1.4752070902441e-05
3.5622673081568e-06,2.97013258578259e-06,7.71944908817046e-06,1.42518489821098e-05
2.10919713448254e-05,1.14669478441211e-05,1.77441365877341e-05,5.03030557766806e-05
1.84709874899979e-05,1.13414609257449e-05,1.62918489311843e-05,4.61042973469271e-05
9.74609714392861e-06,6.44479162196752e-06,1.01383554467911e-05,2.63292442126873e-05
1.26192477909248e-05,6.73512433774267e-06,1.1172126295308e-05,3.05264984239754e-05
1.15134222563382e-05,5.92249865263243e-06,1.04081914839205e-05,2.78441123928911e-05
6.70669023692204e-06,5.06741202743585e-06,9.83793893758505e-06,2.16120412019429e-05
0.000109433962727248,5.71081826497126e-05,4.84210936069118e-05,0.000214963238983873
1.11653134039002e-05,6.98808269537687e-06,1.31286045654023e-05,3.12820006646794e-05
4.46678876518828e-06,3.67596913266117e-06,9.22044302971342e-06,1.73632009275629e-05
5.36847368436936e-06,4.10209895829485e-06,9.46315989868496e-06,1.89337325413492e-05
6.32203481219121e-06,3.96819391663988e-06,9.4480856988935e-06,1.97383144277246e-05
3.65421560043523e-06,3.02506694506562e-06,8.08226843262428e-06,1.47615509781251e-05
3.30375235218823e-06,3.06622885117302e-06,7.64623431953061e-06,1.40162155228919e-05
3.28696370531281e-06,2.84016896534437e-06,7.31185285089303e-06,1.34389855215502e-05
5.3367745105054e-06,7.30501119279434e-06,9.67811317332661e-06,2.23198988766264e-05
4.39035321518703e-06,3.59654461562302e-06,8.89726004892793e-06,1.6884157879738e-05
3.30676950721454e-06,2.89952224581781e-06,7.71553878939624e-06,1.39218305424286e-05
3.57204070027869e-06,3.1217192414021e-06,7.89749077413282e-06,1.45912507158136e-05
6.17276962978151e-06,4.86242298556776e-06,9.49736225385133e-06,2.05325548692006e-05
3.37795746998429e-06,3.03622490647765e-06,7.76159022394541e-06,1.41757726004073e-05
3.34495486929907e-06,2.99748793836482e-06,7.32884805054514e-06,1.3671290858209e-05
6.33451356009219e-06,5.96014181969838e-06,9.05628954824979e-06,2.13509449280404e-05
4.37395261541478e-06,3.20974350302385e-06,8.83514038917537e-06,1.6418836507614e-05
4.1843604403911e-06,3.76361172918802e-06,8.80773132087381e-06,1.67557034904529e-05
4.83139226972817e-06,3.94261275837152e-06,9.22239791601786e-06,1.79964029441175e-05
3.44581713094865e-06,3.00649352688379e-06,7.91915726852339e-06,1.43714679263558e-05
8.65862848959551e-06,5.55167942251946e-06,9.67487390098892e-06,2.38851818131039e-05
5.17611697921572e-06,3.84912127615157e-06,8.76295039939771e-06,1.7788188654765e-05
7.96163764545554e-06,4.89884803443072e-06,9.56025703683687e-06,2.24207427167231e-05
1.23107136704294e-05,7.6922583451984e-06,1.16369258288592e-05,3.1639897844487e-05
5.32266454810442e-06,3.60138713834879e-06,9.18764547062094e-06,1.81116971570741e-05
6.81865014472516e-06,7.49736002487711e-06,9.76697130781954e-06,2.40829814774218e-05
4.90121295902024e-06,3.45449407378101e-06,8.2802159097238e-06,1.66359229425251e-05
7.9967249004738e-06,4.98826661582894e-06,1.00850317911098e-05,2.30700233074125e-05
9.0465666948991e-06,6.40866730695333e-06,1.18617614163463e-05,2.73169954181987e-05
5.01426568802192e-06,3.23646344266335e-06,9.0538176583271e-06,1.73045467890124e-05
4.19083985967962e-06,3.18482163321645e-06,9.2441995687845e-06,1.66198610616806e-05
5.47440732060517e-06,3.75189527751571e-06,8.78801105206768e-06,1.80143136501886e-05
4.49093869047651e-06,3.15366754859951e-06,8.49705018381291e-06,1.61416564228889e-05
5.62650350025393e-06,4.45404892136186e-06,9.53749952380675e-06,1.96180519454225e-05
3.88693552725723e-06,3.13480643384e-06,8.56028199853663e-06,1.55820239596339e-05
6.69337871846408e-06,4.50081222164291e-06,1.01039984895146e-05,2.12981894296216e-05
4.59121614225567e-06,3.42096087725899e-06,8.85165653350873e-06,1.68638335530234e-05
7.70398695428006e-06,4.32307007729895e-06,9.47215248699835e-06,2.14992095185774e-05
3.8062437412513e-06,2.98603131595575e-06,8.25136903561549e-06,1.50436440928225e-05
3.50226060120962e-06,2.89488136827671e-06,7.94987668509027e-06,1.43470186545766e-05
6.79280409418771e-06,4.49470222036791e-06,9.32157997869519e-06,2.06090862932508e-05
8.73579500506063e-06,6.93689447069813e-06,1.28639539492372e-05,2.85366434249959e-05
3.62758017382537e-06,3.09527808812105e-06,9.08335288443473e-06,1.58062111463812e-05
3.2668216741205e-06,2.96770276715254e-06,8.2364405242471e-06,1.44709649655201e-05
1.09408623947225e-05,6.71162913607045e-06,1.05599336589862e-05,2.82124251897791e-05
6.05535672233014e-06,4.39601526839464e-06,8.81999399072055e-06,1.92713659814453e-05
5.45721699965975e-06,3.77076079221603e-06,8.96012085131002e-06,1.81880986431858e-05
3.16412231248841e-06,2.9744175784858e-06,7.41575023504195e-06,1.35542901260162e-05
4.00087379296894e-06,3.55386875776993e-06,8.68437282917095e-06,1.62391153799098e-05
3.55917653360687e-06,3.13243534793628e-06,7.86490796405087e-06,1.4556519845594e-05
3.17413303012651e-06,3.01822899692673e-06,7.7338916746298e-06,1.3926253701683e-05
3.19158223452886e-06,2.94242599777117e-06,7.46912759782122e-06,1.36031358301212e-05
3.10045215345607e-06,2.92675430203307e-06,7.53928764463894e-06,1.35664941001281e-05
3.34943695143844e-06,3.04098472993146e-06,8.00797296889666e-06,1.43983946502666e-05
3.56000218857569e-06,3.25954525311328e-06,8.58133731853328e-06,1.54008847602223e-05
4.39420591464306e-06,3.54355671361446e-06,8.51006590902543e-06,1.6447828537283e-05
4.38566862720103e-06,3.56935270318379e-06,9.1816240478967e-06,1.71366453782815e-05
4.23858461994362e-06,3.50511792565172e-06,9.14032739254849e-06,1.68840299381438e-05
4.77958672323058e-06,3.60029334419745e-06,9.10518211767343e-06,1.74850621851015e-05
4.6837653977359e-06,3.51935093957223e-06,8.42431722189085e-06,1.6627433559199e-05
7.91324993730675e-06,5.29274286257387e-06,1.07784862039536e-05,2.39844790038342e-05
3.64658290688981e-06,2.98947591257361e-06,8.75627410139979e-06,1.53923329208632e-05
4.48764967704293e-06,3.44080446405311e-06,8.65882879269612e-06,1.65872829337922e-05
5.0351351501874e-06,3.76016239462592e-06,9.07175734343993e-06,1.78670548882533e-05
3.5369671432366e-06,3.01940402906082e-06,8.11765944549962e-06,1.4674030617797e-05
5.39139503028882e-06,3.74471991493075e-06,8.8385838613641e-06,1.79746988065837e-05
4.72376982488824e-06,3.60829295363594e-06,9.0420185770781e-06,1.73740813556023e-05
5.03850639293499e-06,4.46537915721422e-06,8.97110538119811e-06,1.84749909313473e-05
9.6306815785712e-06,9.19893283178987e-06,1.37756895747493e-05,3.26053039851104e-05
4.33151474405923e-06,3.3527214151969e-06,8.96098200058027e-06,1.66452181598364e-05
2.84964529039247e-05,2.42942891780203e-05,3.55212761637004e-05,8.83120182456454e-05
0.000299510959746462,0.000504794092677675,0.000466512438451402,0.00127081749087554
0.00016224717557082,0.000453675703335613,0.000297184770024632,0.000913107648931066
1.48727685469434e-05,1.92772693381461e-05,2.43025790546985e-05,5.84526169397879e-05
2.07729833506549e-05,1.51857565171528e-05,2.22749914105975e-05,5.82337312784052e-05
0.000342248643885991,0.00129817629961269,0.00121938635398394,0.00285981129748262
0.000193564654563519,0.000651215585532616,0.000604340979027955,0.00144912121912409
2.95324741007073e-05,1.46681868747801e-05,3.18093323388976e-05,7.6009993314385e-05
8.89616216990592e-06,9.54794903271576e-06,1.68931389328088e-05,3.53372501354305e-05
3.38337066591166e-05,2.08138165527164e-05,3.12104815123861e-05,8.58580047242191e-05
2.29187238089679e-05,1.15750970674467e-05,2.40771650388764e-05,5.85709859152909e-05
4.29286180957142e-05,0.000131302955535244,0.000102925755936348,0.000277157329567306
0.000142034429703748,0.000228498144960021,0.000295856017649878,0.000666388592313647
0.000190177225086712,0.000437420729530228,0.000411402404270176,0.00103900035888712
0.00025990781012346,0.000864725843193784,0.00085226533079033,0.00197689898410757
6.1717888370076e-05,0.000189857752715269,0.000114826669076341,0.000366402310161686
0.000326976445971276,0.00115958926892342,0.000808537361575755,0.00229510307647045
8.69086481183849e-05,0.00011386489045003,6.20137512966201e-05,0.000262787289865035
0.000124891541440727,0.000139346080712406,0.000115244933370781,0.000379482555523914
9.77736690140641e-05,0.000232685878643376,0.000182861004300349,0.000513320551957789
0.000406892251824619,0.00202901288209956,0.00157454623169828,0.00401045136562246
0.000472249246266347,0.00192659091458344,0.00119949692855338,0.00359833708940317
6.83568920639447e-05,0.000163722142766339,0.000101961259947957,0.000334040294778241
0.000145216028685819,7.91336372694997e-05,0.000105219103914612,0.000329568769869931
5.70982843929309e-05,2.40961708339742e-05,4.3319606672381e-05,0.000124514061899286
9.09766419816498e-05,5.38450511598642e-05,6.08321549093549e-05,0.000205653848050869
8.66356182150408e-05,3.1851899761995e-05,5.51780209438437e-05,0.000173665538920879
5.61545534779951e-05,4.70167042103439e-05,5.1514088046937e-05,0.000154685345735276
6.01243055765376e-05,4.10059018031811e-05,5.72601660060079e-05,0.000158390373385727
8.48335332773773e-05,5.52178367143984e-05,5.98229592664461e-05,0.000199874329258222
0.00014961468169316,0.000220293151946266,0.000167760427155494,0.00053766826079492
9.22326874872283e-05,0.000111626610469049,0.000127556175351826,0.000331415473308104
3.17604830392263e-05,5.75825141203215e-05,3.84471534690217e-05,0.000127790150628569
0.000114518193495457,0.000185082244877705,0.000144192165273623,0.000443792603646786
3.54745272034393e-05,1.89815916234789e-05,2.89455943528074e-05,8.34017131797256e-05
0.000112367302444738,0.000183023422791457,0.000111999897194129,0.000407390622430324
5.98242921565835e-05,3.1094380589838e-05,3.40027821603339e-05,0.000124921454906755
0.000132978367569021,0.000264235467633205,0.000231096774064127,0.000628310609266352
0.000116657393753656,0.000104494062025451,0.000110474154542805,0.000331625610321912
7.50623853093175e-05,4.65371068868949e-05,6.93455012981543e-05,0.000190944993494367
0.000142652420269225,0.000253318508699079,0.000198985586361999,0.000594956515330304
0.000148224903210972,0.000275530803915543,0.000266747183576157,0.000690502890702672
7.8921758931825e-05,6.23225345757442e-05,7.5187991386736e-05,0.000216432284894305
0.000116592997504006,6.92383722441345e-05,0.000103609235770966,0.000289440605519107
8.93692469821848e-05,7.66135282202563e-05,7.53145243078696e-05,0.000241297299510311
8.46602559035847e-05,0.000145168169167237,8.83430262813643e-05,0.000318171451352186
8.64477153649235e-05,9.29104549924518e-05,0.000118507527878856,0.000297865698236231
0.000252047441298225,0.000299272437255319,0.00019043437786983,0.000741754256423374
0.000217108503248221,0.000258818441443461,0.000225829065890481,0.000701756010582163
5.63768900008699e-05,4.559397613182e-05,5.84597601719164e-05,0.000160430626304606
1.84868178886353e-05,7.25706061472413e-06,2.24898453159021e-05,4.82337238192615e-05
2.35038476511291e-05,8.38456842781508e-06,2.29408013197547e-05,5.48292173986988e-05
2.19236872875788e-05,9.13506964406744e-06,1.97063644347061e-05,5.07651213663523e-05
2.57823069296445e-05,8.01320874777367e-06,1.94261211522278e-05,5.32216368296459e-05
9.72529290577945e-05,0.000100261308923436,0.000294774052431014,0.000492288290412244
8.96934102311931e-05,0.000154730732006774,0.000137200669982776,0.000381624812220742
8.24712365066085e-05,7.25284450272053e-05,8.46370507220087e-05,0.000239636732255822
3.71685740438893e-05,2.68221297037816e-05,3.22807497827856e-05,9.62714535304564e-05
3.21873669194766e-05,1.78080491137904e-05,3.20071715044831e-05,8.20025875377502e-05
7.87203339153241e-05,0.000103713350416337,9.6940574571772e-05,0.000279374258903433
7.82871169275482e-05,8.06864156828856e-05,6.57602064583255e-05,0.000224733739068759
2.99469100570243e-05,4.69844510820185e-05,5.18560749767865e-05,0.000128787436115829
4.82781029946933e-05,7.4797788609849e-05,5.41484521639701e-05,0.000177224343768512
7.97702327402384e-05,9.58508370374392e-05,8.70840455520128e-05,0.00026270511532969
5.25811801923843e-05,4.91865722741624e-05,5.63546124441485e-05,0.000158122364910695
0.000156938070895206,0.0001598780547625,0.000131626323447688,0.000448442449105394
4.97762308278552e-05,2.2472279054776e-05,4.20886939880356e-05,0.000114337203870667
3.43106057526902e-05,9.14822729805747e-06,2.44427213975677e-05,6.79015544483153e-05
0.000140591220116324,0.000237246172798289,0.000267336130287693,0.000645173523202306
5.77548944508927e-05,0.000121040948603944,0.000103710363399885,0.000282506206454722
8.67546910153389e-05,0.000173164751753463,0.000142733906319849,0.00040265334908865
0.000174754801807063,0.000374292114395955,0.00027172249488431,0.000820769411087327
9.24750663362157e-06,4.14341887734834e-06,1.16927821250692e-05,2.50837076360391e-05
0.000229335892118616,0.000421152820204277,0.000249783202359004,0.000900271914681898
6.03776860334964e-05,8.40871259631648e-05,5.19428224274584e-05,0.00019640763442412
9.49153083934493e-05,0.000233081662250857,0.000183762928100307,0.000511759898744613
4.7942824974532e-05,0.000120450296117736,0.000111602629539551,0.000279995750631819
8.23976806859389e-05,0.000271100291573045,0.000313060983977207,0.000666558956236191
6.54245922489493e-05,0.00015524756671094,0.000111536594855066,0.000332208753814954
5.07531805396924e-05,7.49483420348365e-05,6.75129857809673e-05,0.000193214508355496
1.50140981885769e-05,7.31009237100573e-06,1.36089440376585e-05,3.59331345972411e-05
1.85704054097776e-05,6.13127718078917e-06,1.19857044451678e-05,3.66873870357346e-05
3.59253463161103e-05,0.000111106718984278,0.000120513718906222,0.00026754578420661
7.16727749445105e-05,0.00014118178015117,0.000100290430214343,0.000313144985310024
2.35379930892818e-05,4.63390730440982e-06,1.22828163431224e-05,4.04547167368141e-05
4.89499411113556e-05,7.05793030438258e-05,4.70546362871864e-05,0.000166583880442368
0.000153133809757688,0.00028388949244776,0.000281140670055504,0.000718163972260952
0.000168068282623066,0.000251331207179532,0.0002031692174198,0.000622568707222398
0.000193556918112571,0.000415786736950603,0.000349497345670299,0.000958841000733473
5.73873718115661e-05,3.69103881262016e-05,5.64036549018965e-05,0.000150701414839664
0.000284924185126842,0.000780659037521663,0.000768278489281025,0.00183386171192953
0.000148657054049815,0.0002836543180049,0.000219201856695135,0.000651513228749851
0.000121080699772071,0.000219107735998259,0.000150274729762756,0.000490463165533086
3.88169386855932e-05,2.27256818806014e-05,3.9722445683089e-05,0.000101265066249284
3.04392601923829e-05,1.09627403624879e-05,1.85293921846722e-05,5.9931392739543e-05
4.80700082559294e-05,1.74881022218929e-05,3.21043946575816e-05,9.76625051354039e-05
2.18461832558472e-05,7.23360820826962e-06,1.36574251302766e-05,4.27372165943935e-05
1.01279350469937e-05,4.14427290764857e-06,1.05828794856631e-05,2.48550874403054e-05
1.46187644810693e-05,4.74276853774514e-06,1.1506292743917e-05,3.08678257627314e-05
1.91311779201704e-05,5.05615779768001e-06,1.08871699467672e-05,3.50745056646177e-05
1.93986771150284e-05,5.58219827715704e-06,1.28013282496951e-05,3.77822036418806e-05
2.0775340204306e-05,6.7095443898733e-06,1.45661482932388e-05,4.20510328874181e-05
1.63277067247515e-05,6.36394216964677e-06,1.33556556114202e-05,3.60473045058185e-05
1.41098727337983e-05,4.45999510315344e-06,1.01419540137329e-05,2.87118218506847e-05
1.03706484636772e-05,4.39100025216627e-06,1.05368538278509e-05,2.52985025436943e-05
2.42047810262731e-05,1.2902086603104e-05,1.52351764440697e-05,5.23420440734468e-05
1.89285389031776e-05,5.74338117329503e-06,1.17950052064314e-05,3.6466925282904e-05
1.45862658884255e-05,5.26123087431217e-06,1.24979424882368e-05,3.23454392509744e-05
2.20051980204416e-05,6.09116427958944e-06,1.37448214087473e-05,4.18411837087784e-05
1.7636780186494e-05,3.32654504096099e-06,8.70336017233745e-06,2.96666853997924e-05
1.94318252154326e-05,3.79037832400407e-06,9.12878369691598e-06,3.23509872363527e-05
2.79983007588441e-05,6.96556804562043e-06,1.54750678261622e-05,5.04389366306267e-05
1.43872934034876e-05,4.66810702426871e-06,1.00803604908879e-05,2.91357609186442e-05
1.63545716917375e-05,4.49532900564863e-06,1.10586203935779e-05,3.1908521090964e-05
2.00690419769677e-05,6.98435297417397e-06,1.30863313587322e-05,4.01397263098739e-05
1.25475617394728e-05,5.60791877030311e-06,1.13141092747041e-05,2.946958978448e-05
1.15688982581037e-05,4.54206207657426e-06,1.06465422553103e-05,2.67575025899883e-05
9.06494183499772e-06,3.93533578008423e-06,9.63613437505228e-06,2.26364119901342e-05
1.10402736808266e-05,3.83719429976922e-06,1.05083940083203e-05,2.53858619889161e-05
9.21692644982011e-06,4.24422014865034e-06,8.77990938641839e-06,2.22410559848888e-05
1.19079343588448e-05,5.74580072267416e-06,1.36050241247464e-05,3.12587592062654e-05
8.59753477058893e-06,3.53947529801028e-06,8.99550146001853e-06,2.11325115286177e-05
1.04598579247474e-05,5.22491962105826e-06,1.10887444151268e-05,2.67735219609325e-05
8.23827047636082e-06,3.806545866273e-06,8.98356239386686e-06,2.10283787365007e-05
7.03929949670801e-06,2.87579565526997e-06,8.25157601135815e-06,1.81666711633361e-05
8.41468346223025e-06,3.50083757362601e-06,9.19225924796164e-06,2.11077802838179e-05
1.59348473461455e-05,5.26528528237052e-06,1.22359018253756e-05,3.34360344538916e-05
1.63938601455899e-05,4.86360610692534e-06,1.12665744571088e-05,3.2524040709624e-05
6.23776495310834e-06,3.09211694249793e-06,8.26448785135114e-06,1.75943697469574e-05
8.07086812105395e-06,3.90321371524802e-06,9.50235619615535e-06,2.14764380324573e-05
1.73747405765774e-05,6.98249343094629e-06,1.44907785353387e-05,3.88480125428624e-05
9.27068916966732e-06,4.65697374097632e-06,9.95849023161278e-06,2.38861531422564e-05
7.55002309068601e-06,4.33174594388931e-06,1.03676225845768e-05,2.22493916191521e-05
7.1364939071231e-06,5.31192192772734e-06,1.36036844771443e-05,2.60521003119947e-05
1.16741877299557e-05,5.75883439589176e-06,1.35109944598679e-05,3.09440165857154e-05
7.6603779223252e-06,4.57013661991352e-06,1.02345878959542e-05,2.24651024381929e-05
2.02470114328821e-05,7.38587902110482e-06,1.45674692281779e-05,4.22003596821648e-05
1.44148222470231e-05,4.89636698252508e-06,1.10155162384074e-05,3.03267054679557e-05
1.50279069876316e-05,5.30667751400842e-06,1.18843541626654e-05,3.22189386643054e-05
1.23443844488283e-05,5.65020210483934e-06,1.09139755347368e-05,2.89085620884044e-05
1.18164009851406e-05,5.91545205096683e-06,1.3265115492587e-05,3.09969685286945e-05
7.03551478457923e-06,4.25360441347487e-06,9.18822857358949e-06,2.04773477716436e-05
9.44415556829624e-06,4.68425908809432e-06,1.16103615350459e-05,2.57387761914365e-05
7.80300606129501e-06,4.20338996624907e-06,9.88635343466506e-06,2.18927494622091e-05
7.87550689313677e-06,3.93230226135796e-06,9.99766192869618e-06,2.18054710831909e-05
3.42842764175686e-05,2.35969234780708e-05,4.75358321573272e-05,0.000105417032052967
1.27400250033189e-05,6.29389784183226e-06,1.26429054501031e-05,3.16768282952543e-05
1.81526916534984e-05,7.24863545998346e-06,1.38099246922522e-05,3.9211251805734e-05
1.37371825682069e-05,5.31677764729687e-06,1.17884099476188e-05,3.08423701631226e-05
1.14645093108284e-05,4.92995603542722e-06,1.1450786133405e-05,2.78452514796606e-05
1.90009006354999e-05,8.93566550950788e-06,1.63815191500131e-05,4.43180852950209e-05
8.30920933418358e-06,4.7269587901997e-06,9.59594006634006e-06,2.26321081907233e-05
6.77358876181968e-06,4.31451405292816e-06,1.00151105492453e-05,2.11032133639932e-05
6.35172494711381e-06,3.60637227941415e-06,9.30765472504067e-06,1.92657519515686e-05
1.46075548417754e-05,7.95818713151562e-06,1.36947150668126e-05,3.62604570401036e-05
1.7513838975478e-05,6.92646010741988e-06,1.36024329188145e-05,3.80427320017124e-05
1.24024933264003e-05,5.06697908529692e-06,1.21527293030925e-05,2.96222017147897e-05
9.73252873588648e-06,4.92778922002937e-06,1.0685875819817e-05,2.53461937757328e-05
7.77287076544794e-06,3.4603249402886e-06,9.39637976765274e-06,2.06295754733893e-05
1.15805240822068e-05,4.58629037872018e-06,1.09487485032055e-05,2.71155629641325e-05
1.17794391921279e-05,5.37342872817468e-06,1.13661099994798e-05,2.85189779197824e-05
1.18888406942357e-05,6.5163676156876e-06,1.45236781160575e-05,3.29288864259809e-05
2.03377804077293e-05,9.57616887791775e-06,1.65153882809957e-05,4.64293375666427e-05
6.27830964285242e-06,3.49011179859737e-06,8.60999688849927e-06,1.8378418329949e-05
1.79406312933932e-05,4.21190073328387e-06,1.08643454080241e-05,3.30168774347012e-05
1.89284283134081e-05,5.01918394070175e-06,1.02591579042448e-05,3.42067701583547e-05
1.55329425652559e-05,4.86200442571428e-06,1.10751261599705e-05,3.14700731509406e-05
9.1092930138967e-06,3.55030103609276e-06,9.14664120281357e-06,2.1806235252803e-05
1.1461089254738e-05,3.08702723757306e-06,8.56986061185514e-06,2.31179771041662e-05
8.78622947701015e-06,4.30990989842902e-06,1.07710635117367e-05,2.38672028871759e-05
6.50334321125813e-06,2.63749552266378e-06,7.82413921878968e-06,1.69649779527116e-05
3.85801751590472e-05,1.88937545156064e-05,4.11714875962903e-05,9.86454172709438e-05
1.67296087380505e-05,5.4067837515768e-06,1.06160058489974e-05,3.27523983386246e-05
8.73681146406295e-06,3.96919769443609e-06,8.41646599684559e-06,2.11224751553446e-05
4.09585701301179e-06,2.71147321592219e-06,7.16290769739936e-06,1.39702379263333e-05
5.09912950673606e-06,2.66444153080383e-06,7.512129560065e-06,1.52757005976049e-05
5.16387700344471e-06,2.9536036840952e-06,7.14930529302276e-06,1.52667859805627e-05
5.06980178557001e-06,2.78049031326229e-06,7.40108985856109e-06,1.52513819573934e-05
7.32951836435383e-06,2.85469071277554e-06,7.00142316583927e-06,1.71856322429686e-05
5.19845695746255e-06,2.66110498471436e-06,7.23797277365269e-06,1.50975347158296e-05
6.63181399836252e-06,2.79014518874316e-06,7.70534741707026e-06,1.71273066041759e-05
8.24778165108033e-06,3.09598579676341e-06,7.85800531316964e-06,1.92017727610134e-05
5.49903533928652e-06,3.23079255026981e-06,8.09753803679398e-06,1.68273659263503e-05
7.16994171446076e-06,2.94063810438177e-06,8.02096458819982e-06,1.81315444070423e-05
9.50054976393272e-06,3.27291700135531e-06,8.22338892051952e-06,2.09968556858076e-05
6.35699338938324e-06,3.02829876105105e-06,7.73179690996819e-06,1.71170890604025e-05
5.95950431766123e-06,2.83466400054353e-06,7.70300312663414e-06,1.64971714448389e-05
9.56954387253354e-06,2.91216375868394e-06,7.96427818381721e-06,2.04459858150347e-05
2.13743787324062e-05,1.67544903850792e-05,2.31688283099881e-05,6.12976974274735e-05
1.43682201549692e-05,3.87153248775352e-06,1.18081236949074e-05,3.00478763376302e-05
1.30189953443813e-05,3.04626190006904e-06,8.33522296035805e-06,2.44004802048083e-05
1.5186392213554e-05,2.84043930421733e-06,8.47601207466596e-06,2.65028435924372e-05
1.73246513264125e-05,2.71604977563327e-06,7.34544588059778e-06,2.73861469826436e-05
1.62712025304562e-05,2.78383968009213e-06,7.46595133873132e-06,2.65209935492797e-05
1.53222685196914e-05,3.11684908455698e-06,8.58261625974465e-06,2.7021733863993e-05
1.39623101866726e-05,2.60251831526532e-06,7.38422227984857e-06,2.39490507817865e-05
1.82343952373225e-05,2.87783501664857e-06,7.41612816593704e-06,2.85283584199081e-05
1.33340116624821e-05,2.60964547237328e-06,7.21046227778791e-06,2.31541194126433e-05
1.58702323749619e-05,2.77864457358365e-06,7.19886931600146e-06,2.5847746264547e-05
1.51689313374468e-05,2.61937729000483e-06,7.50217782518508e-06,2.52904864526367e-05
1.48669363231082e-05,3.40102117152037e-06,8.08963750100312e-06,2.63575949956317e-05
1.58116886474687e-05,2.62162281143458e-06,7.35616094910165e-06,2.57894724080049e-05
1.53090027023014e-05,2.67257744229853e-06,7.34933466609106e-06,2.5330914810691e-05
1.34068901717285e-05,2.65368849109642e-06,7.1201857764523e-06,2.31807644392772e-05
1.52540725044016e-05,2.68486236731479e-06,7.45054897248922e-06,2.53894838442057e-05
1.27521898861108e-05,2.9440123615531e-06,8.36736594950419e-06,2.40635681971681e-05
1.30621458620771e-05,2.649097815081e-06,7.31174608695076e-06,2.30229897641088e-05
1.38266950085582e-05,3.55348215165127e-06,7.98904777320076e-06,2.53692249334102e-05
0.000239748037841979,0.000608183055716388,0.000444438135412903,0.00129236922897127
0.000265097584011992,0.000422462850448402,0.000313472114648629,0.00100103254910902
0.000343738508554719,0.00110672383148017,0.00106256418234033,0.00251302652237522
0.000223716024490439,0.000656234286174921,0.000450589538486371,0.00133053984915173
0.000205711294351516,0.000421905997376547,0.000394594370747816,0.00102221166247588
0.000495847118202993,0.00234731515220545,0.00159334132670917,0.00443650359711762
0.000318626536287131,0.000797501315962396,0.000609799178480422,0.00172592703072995
5.15096942332693e-05,7.94296265879355e-05,7.45712011820422e-05,0.000205510522003247
3.42621244130462e-05,6.0865964557502e-05,4.61707300440852e-05,0.000141298819014633
4.37265511701927e-05,5.2482698803913e-05,5.4678295292909e-05,0.000150887545267015
2.00477775869078e-05,5.66223527193758e-06,1.71823798582097e-05,4.28923927170551e-05
2.29298480323869e-05,7.48191876902992e-06,1.8612562428008e-05,4.90243292294248e-05
5.83049663233297e-05,0.000117552325112107,7.92257770027613e-05,0.000255083068438198
0.000100898858282714,0.000133622005716675,0.000148513371240133,0.000383034235239521
7.36262585632344e-05,0.000172894168295152,0.000190629287533885,0.000437149714392271
7.06501989458683e-05,7.52693806640331e-05,7.502738333489e-05,0.000220946962944791
9.51751585786613e-05,6.36602343923565e-05,8.69626123675734e-05,0.000245798005338591
4.97842561947619e-05,3.43768505277785e-05,5.11400705332179e-05,0.000135301177255758
7.37686790071277e-06,5.99602174127085e-06,1.13637972237387e-05,2.47366868657223e-05
7.31934576061698e-06,6.66564021117396e-06,1.11936367252401e-05,2.5178622697031e-05
3.4742224716763e-05,1.76980686428004e-05,2.27997729845337e-05,7.52400663440971e-05
1.55066111191312e-05,6.99837614459817e-06,1.72472912646157e-05,3.97522785283451e-05
0.000151924639639045,0.000231017233728613,0.000204733022631587,0.000587674895999246
5.63946228801275e-05,9.15418671137011e-05,4.457977470811e-05,0.000192516264701939
0.000103298735975035,0.000230241990551747,6.92861089089719e-05,0.000402826835435754
9.51073046199354e-05,0.000308193767862835,8.34479608225922e-05,0.000486749033305362
0.000253485382445104,0.000723756703957887,0.00072850721031438,0.00170574929671737
0.00022413149480174,0.000106676236722072,0.000127250174425587,0.000458057905949399
3.46744207687777e-05,3.44227530931083e-05,4.32959874834979e-05,0.000112393161345384
5.26042305678117e-06,7.02786777789751e-06,1.38334714791268e-05,2.61217623138055e-05
1.08780436110417e-05,6.30146348897509e-06,1.59853448217537e-05,3.31648519217705e-05
5.39091933965644e-06,7.91477594340807e-06,1.52346051263842e-05,2.85403004094487e-05
3.26694614194333e-06,2.67317849254278e-06,8.41827837993865e-06,1.43584030144248e-05
6.77739469959802e-05,4.37870933095681e-05,6.62437672029783e-05,0.000177804807508527
5.74245645818769e-05,2.32513494370224e-05,4.44218946965414e-05,0.000125097808715441
1.72229623880264e-05,2.81452575736666e-05,2.21790879272581e-05,6.75473078889511e-05
4.15181285666804e-06,3.3216122862159e-06,8.72129108788821e-06,1.61947162307721e-05
3.53828948531165e-06,2.77625724537013e-06,7.71131511811292e-06,1.40258618487947e-05
3.49713001391552e-06,2.96215393202181e-06,8.16806002913202e-06,1.46273439750693e-05
3.9472278998789e-06,3.31742612186604e-06,8.14666505437305e-06,1.5411319076118e-05
3.64871568634683e-06,2.94185301966871e-06,8.03242098791498e-06,1.46229896939305e-05
4.98017878135593e-05,3.73057651439488e-05,7.86789241386553e-05,0.000165786477096163
8.82269107713316e-06,5.63448211981909e-06,1.65472868400821e-05,3.10044600370344e-05
3.46853771038925e-06,2.72612923878557e-06,8.49920858901933e-06,1.46938755381942e-05
4.02965692641624e-06,3.31753074297322e-06,9.14027175594359e-06,1.6487459425333e-05
4.94794999875634e-06,4.44691423522184e-06,9.91364558023639e-06,1.93085098142146e-05
3.35649055932309e-06,2.68920045978964e-06,8.01339977702624e-06,1.4059090796139e-05
3.19993743777095e-06,2.50736576259727e-06,7.96756509650939e-06,1.36748682968776e-05
3.15348223425892e-06,2.55357609341558e-06,7.56134904363516e-06,1.32684073713097e-05
3.1991266990816e-06,2.59427147780432e-06,7.7117482905804e-06,1.35051464674663e-05
3.04190524343171e-06,2.55663193823446e-06,8.10305071960235e-06,1.37015879012685e-05
3.28015229897044e-06,2.64349574180382e-06,8.01587690368682e-06,1.39395249444611e-05
3.1882236628009e-06,2.57372477741127e-06,8.35528398740399e-06,1.41172324276162e-05
4.61314585107793e-05,3.79380218142013e-05,2.82625387547944e-05,0.000112332019079775
9.06188751505627e-05,4.32060953714977e-05,7.69845588701755e-05,0.000210809529392236
4.41705457474245e-06,3.72958478226659e-06,8.33903279969337e-06,1.64856721567024e-05
4.6490908333003e-06,3.37140848867948e-06,8.22800720343773e-06,1.62485065254175e-05
3.01700037301654e-06,2.65931193586084e-06,7.62353468852412e-06,1.32998469974015e-05
3.15782016001896e-06,2.74374372387931e-06,7.514153999998e-06,1.34157178838963e-05
4.42839255596429e-06,3.12896058908402e-06,8.01648615275601e-06,1.55738392978043e-05
4.44774579029852e-05,3.02090889362557e-05,3.7576372321639e-05,0.00011226291916088
1.25635111627262e-05,9.9761376772848e-06,1.54284977042493e-05,3.79681465442603e-05
6.70756663038295e-06,4.35249638954811e-06,1.00052070761034e-05,2.10652700960345e-05
6.53355909882477e-06,4.01386588373124e-06,9.62184360125368e-06,2.01692685838097e-05
5.58626799047005e-06,3.70002303964349e-06,8.83349056500412e-06,1.81197815951177e-05
5.28760444227529e-06,3.58248107212564e-06,8.6140672825199e-06,1.74841527969208e-05
5.91786885827198e-06,3.61806566280882e-06,8.82617330047072e-06,1.83621078215515e-05
5.11505709156779e-06,3.44896522782694e-06,8.32888243027333e-06,1.68929047496681e-05
5.69518350438839e-06,3.41942254282783e-06,8.74303933170318e-06,1.78576453789194e-05
5.48206015322284e-06,3.49091112625949e-06,8.11341445656805e-06,1.70863857360504e-05
4.66543354107025e-06,3.24407794680533e-06,7.80005517633592e-06,1.57095666642115e-05
4.76509285358964e-06,3.44261052619649e-06,7.86426273815558e-06,1.60719661179417e-05
4.53741003506041e-06,3.43678526677182e-06,8.07188504957446e-06,1.60460803514067e-05
7.820196566648e-06,5.06539230984394e-06,1.0894742604909e-05,2.37803314814009e-05
5.33770400271812e-06,5.6728533928384e-06,9.04343048505366e-06,2.00539878806102e-05
4.9770391422069e-06,3.51908628435178e-06,8.89374208038792e-06,1.73898675069466e-05
5.36238409088469e-06,3.71995359100334e-06,8.54533363014819e-06,1.76276713120362e-05
9.82970097009478e-06,8.43301030042438e-06,1.1456248886906e-05,2.97189601574251e-05
7.18649423407731e-06,6.24083076952803e-06,1.03013566738807e-05,2.3728681677486e-05
5.64737686964318e-06,4.61201139191287e-06,9.2426789527402e-06,1.95020672142963e-05
4.82285467828835e-06,4.06648006394278e-06,8.23077248505712e-06,1.71201072272883e-05
7.46081850569739e-06,4.0489920408272e-06,9.14397594993198e-06,2.06537864964566e-05
8.1010849750527e-06,4.62510876079221e-06,9.19445136774721e-06,2.19206451035921e-05
5.59113373880327e-06,3.34325989834837e-06,8.35403239026339e-06,1.7288426027415e-05
1.72858793738424e-05,1.52635920880951e-05,1.70870107831865e-05,4.9636482245124e-05
1.29885788886633e-05,1.13836921444445e-05,1.45659312080092e-05,3.8938202241117e-05
6.26603910379665e-06,5.68959527244268e-06,1.02552725431098e-05,2.22109069193491e-05
6.86847165712672e-06,7.30901069221938e-06,9.83791715432393e-06,2.401539950367e-05
4.9505788252204e-06,5.60909138654365e-06,8.89892432723625e-06,1.94585945390003e-05
7.3694267844614e-06,7.72807537208558e-06,1.18857674665964e-05,2.69832696231434e-05
3.44551809334598e-06,2.88156132147226e-06,7.7345743570427e-06,1.40616537718609e-05
4.14445755704335e-06,2.82363041015791e-06,7.68171891817221e-06,1.46498068853735e-05
5.04909553220158e-06,2.99004693557204e-06,7.93240060432258e-06,1.59715430720962e-05
4.63397428533869e-06,2.97606094086321e-06,7.59897469719172e-06,1.52090099233936e-05
5.98483716501766e-06,3.55537659984364e-06,8.90016702172299e-06,1.84403807865843e-05
4.78755727659957e-06,2.84343170907037e-06,7.82238653937349e-06,1.54533755250434e-05
4.55147277803723e-06,3.04786961604126e-06,7.93487800223571e-06,1.55342203963142e-05
3.825681359705e-06,3.04843848865261e-06,8.22895612359013e-06,1.51030759719477e-05
3.67986539423007e-06,2.86258286857576e-06,7.36494594960927e-06,1.39073942124151e-05
3.37913904189851e-06,2.94556960197879e-06,7.38995019061989e-06,1.37146588344972e-05
3.35418245873979e-06,2.9704504685998e-06,7.42855168111168e-06,1.37531846084513e-05
3.55363322178103e-06,2.94413291536387e-06,7.66153163718543e-06,1.41592977743303e-05
4.02904491371956e-06,3.18108387258953e-06,8.42512532133529e-06,1.56352541076444e-05
1.7889714264867e-05,2.18205360269942e-05,1.97611451170173e-05,5.94713954088785e-05
1.11026279174847e-05,7.07345941285283e-06,1.17921233405433e-05,2.99682106708808e-05
7.09674862258021e-06,4.31626884358276e-06,8.88038173731775e-06,2.02933992034807e-05
7.18321126589411e-06,4.09687759767809e-06,9.50491953376073e-06,2.07850083973329e-05
4.50817325502807e-06,3.3072895885608e-06,8.31768543634011e-06,1.6133148279929e-05
4.62352232848689e-05,3.21465658001036e-05,3.55337887965226e-05,0.000113915577881495
1.18382976136479e-05,9.83473025384705e-06,1.7263174488228e-05,3.89362023557229e-05
1.5215761665555e-05,1.14712558095415e-05,1.80231178564314e-05,4.47101353315279e-05
8.20941321244558e-06,3.00347261352443e-06,7.69227420474831e-06,1.89051600307183e-05
3.13381506947581e-05,1.34977670219064e-05,2.48090389676137e-05,6.96449566842782e-05
1.10669191197763e-05,5.48524466713638e-06,1.02500824487132e-05,2.68022462356259e-05
9.72257558664591e-06,3.52402700181801e-06,7.94604111104247e-06,2.11926436995064e-05
1.05576272509354e-05,4.42427836059936e-06,8.57702240851559e-06,2.35589280200504e-05
1.55957778245015e-05,4.58515755253307e-06,8.83064947059367e-06,2.90115848476282e-05
6.123744023432e-06,3.13586500922474e-06,7.57092559990408e-06,1.68305346325608e-05
9.77152745239135e-06,7.6860640562696e-06,1.13690010370862e-05,2.88265925457472e-05
8.7219458637815e-05,6.57064551963633e-05,0.000105015561142406,0.000257941474976584
1.50931077401101e-05,4.79887059563568e-06,1.02216432172377e-05,3.01136215529834e-05
1.78136210717849e-05,3.59701776511573e-06,8.70047738180401e-06,3.01111162187046e-05
1.77030948719134e-05,3.1707376878201e-06,7.85518410631152e-06,2.87290166660451e-05
1.94609424826351e-05,2.82970704428178e-06,7.47868055666179e-06,2.97693300835787e-05
1.97394534177488e-05,4.51453060047608e-06,8.80997406987624e-06,3.30639580881011e-05
2.52237254196926e-05,3.89221173982013e-06,8.02586758797585e-06,3.71418047474886e-05
2.02445677003077e-05,3.11913213273174e-06,7.33746712995806e-06,3.07011669629975e-05
2.0752219512644e-05,3.33229058655056e-06,7.73948912851898e-06,3.18239992277136e-05
2.26254292964776e-05,4.61637988280577e-06,8.2914229167577e-06,3.5533232096041e-05
2.02521773033503e-05,3.47670209194134e-06,7.81835780715809e-06,3.15472372024498e-05
2.40711399873771e-05,3.99347697720516e-06,8.5427546822696e-06,3.66073716468518e-05
2.65201979541027e-05,3.60459459500324e-06,7.38909364421392e-06,3.75138861933199e-05
1.74303959750399e-05,3.15497334994967e-06,7.45748654009123e-06,2.80428558650808e-05
1.76677684022225e-05,2.7959977370748e-06,6.79269428683605e-06,2.72564604261333e-05
2.01945617463218e-05,3.06261982026815e-06,7.17327407841355e-06,3.04304556450035e-05
2.15304366032424e-05,2.79324475646761e-06,6.94951782243753e-06,3.12731991821475e-05
2.61750896374609e-05,3.49459386199091e-06,8.77346506946887e-06,3.84431485689206e-05
2.52759565946243e-05,2.86521992638378e-06,7.19139374074728e-06,3.53325702617554e-05
2.52141724070584e-05,2.91306308429576e-06,7.08706234193246e-06,3.52142978332866e-05
2.56110438649948e-05,3.12026028167716e-06,7.38546054962484e-06,3.61167646962968e-05
2.63984850874854e-05,3.1187878640834e-06,6.87771073371868e-06,3.63949836852875e-05
2.71128684106875e-05,3.35104647503282e-06,6.99824761408776e-06,3.74621624998081e-05
2.81973867867457e-05,3.20487297846669e-06,7.11959591201049e-06,3.85218556772228e-05
2.58641659428314e-05,2.79491973407969e-06,6.58128664176059e-06,3.52403723186717e-05
2.62619645749043e-05,2.90047660100105e-06,7.14358526963241e-06,3.63060264455378e-05
2.51304232753685e-05,3.93511757277398e-06,8.81442365489822e-06,3.78799645030407e-05
2.58019869027703e-05,3.22011397662956e-06,8.01604604263268e-06,3.70381469220326e-05
2.55949490972942e-05,3.2983591326038e-06,7.6629159656521e-06,3.65562241955501e-05
2.36044755459963e-05,2.85044383555818e-06,7.51291552166293e-06,3.39678349032174e-05
4.06405584199571e-05,1.72021479955289e-05,2.91920282139477e-05,8.70347346294337e-05
5.87297050189281e-06,3.93598773787379e-06,9.16181100124509e-06,1.89707692410117e-05
5.70287308049048e-06,4.27651866054024e-06,9.53482364046415e-06,1.95142153814949e-05
4.04942465074679e-06,3.84357678501985e-06,8.65419108158401e-06,1.65471925173506e-05
4.18369731253603e-06,3.96222399779815e-06,8.53340482099466e-06,1.66793261313288e-05
3.09833874736376e-06,2.61491505969314e-06,7.24190029942325e-06,1.29551541064802e-05
3.0126745523853e-06,2.75174451371602e-06,7.37516885783444e-06,1.31395879239358e-05
1.07868326523294e-05,8.05999500326426e-06,1.13847699719829e-05,3.02315976275766e-05
5.32614579658671e-05,4.23770486494427e-05,4.3061510156843e-05,0.000138700016772153
3.29710626183791e-06,2.86863485034603e-06,8.21201692341223e-06,1.43777580355962e-05
7.74372133063237e-06,4.89819500089019e-06,1.00544932652193e-05,2.26964095967418e-05
1.35290288729363e-05,8.96644237515757e-06,1.36988615398325e-05,3.61943327879264e-05
2.70855329786304e-05,1.65383406742963e-05,1.96409306495866e-05,6.32648043025132e-05
3.89326331072195e-06,3.02017049043601e-06,7.56939534021056e-06,1.44828291413685e-05
3.72349566712897e-06,2.67739225609725e-06,8.04600311898077e-06,1.4446891042207e-05
3.69046906360629e-06,2.75532461013048e-06,7.51490707135673e-06,1.39607007450935e-05
5.15633726361073e-06,3.9977187261823e-06,8.48110111160737e-06,1.76351571014004e-05
4.0590407213734e-06,3.23433413017074e-06,7.62282605767324e-06,1.49162009092174e-05
3.78351821835426e-06,2.93589584427512e-06,7.62818314522895e-06,1.43475972078583e-05
4.86463290616802e-06,6.90165658021517e-06,8.55530837854932e-06,2.03215978649325e-05
2.99919172293517e-05,1.29663545214869e-05,1.96916398507252e-05,6.26499116015637e-05
2.20439955993845e-05,2.27811444819077e-05,2.57235104127678e-05,7.05486504940599e-05
1.12161853035584e-05,1.02033166001857e-05,1.25886832731417e-05,3.40081851768858e-05
1.47395668993042e-05,1.05300116319914e-05,1.04352500055008e-05,3.57048285367965e-05
5.00405190734722e-06,3.72765012159875e-06,8.23458560662166e-06,1.69662876355676e-05
5.66377368011479e-06,3.82163115647053e-06,8.1863875186173e-06,1.76717923552026e-05
5.33519996282624e-06,3.65317023106298e-06,7.75957022769178e-06,1.6747940421581e-05
4.99133008960908e-06,3.62947729948334e-06,7.92040641889058e-06,1.6541213807983e-05
3.78674581200625e-06,3.14111511338251e-06,7.09546967766849e-06,1.40233306030573e-05
4.32343475685323e-06,3.63574335965859e-06,7.33315800953028e-06,1.52923361260421e-05
4.67420017726662e-06,3.4168938865822e-06,7.35703593127271e-06,1.54481299951215e-05
4.58951090893375e-06,3.38295160911558e-06,6.8697118647027e-06,1.4842174382752e-05
5.95190880876294e-06,3.79315386492101e-06,7.45302626954774e-06,1.71980889432317e-05
7.22268343987283e-06,4.29952382050619e-06,8.07471014776856e-06,1.95969174081476e-05
4.93460273573294e-06,3.7117127670745e-06,7.92736895886218e-06,1.65736844616696e-05
5.42649583894976e-06,3.84880408954296e-06,8.81683808694262e-06,1.80921380154353e-05
4.66209949896064e-06,3.6208962072798e-06,8.29123194356116e-06,1.65742276498016e-05
4.56941971643122e-06,3.4191856331403e-06,8.18450333471674e-06,1.61731086842883e-05
4.43529636057008e-06,3.40279055219564e-06,7.96013108854789e-06,1.57982180013136e-05
4.96099653253366e-06,3.56386287865998e-06,8.12228422364765e-06,1.66471436348413e-05
5.94963920716534e-06,4.06633098473065e-06,8.48122660478753e-06,1.84971967966835e-05
4.77168701349329e-06,3.74677711234261e-06,8.4225304679401e-06,1.6940994593776e-05
5.93925951284903e-06,3.93435052009447e-06,8.53476684719953e-06,1.8408376880143e-05
4.69555524530028e-06,3.72231099310512e-06,8.12187281522993e-06,1.65397390536353e-05
7.40933411005496e-06,6.4527129563057e-06,1.05098024126587e-05,2.43718494790194e-05
6.79796380680944e-06,4.52502048410567e-06,8.40788622958144e-06,1.97308705204966e-05
9.5871165064507e-06,6.42869030306024e-06,1.19564914225545e-05,2.79722982320654e-05
9.59139284948855e-06,5.46844817439236e-06,1.15209431645376e-05,2.65807841884185e-05
9.05972021797289e-05,0.000179047952887555,0.000138164198993437,0.000407809354060721
5.20500180382672e-05,6.00058622359509e-05,4.09725730563997e-05,0.000153028453330618
1.50148755124395e-05,1.24612428731576e-05,1.83814529069154e-05,4.58575712925126e-05
1.74897025310652e-05,1.74784648629463e-05,1.98501609700371e-05,5.48183283640487e-05
4.3303335032448e-05,3.43208840733914e-05,3.53316559535613e-05,0.000112955875059401
6.03905747409587e-06,5.15088826598206e-06,1.11994901865686e-05,2.23894359266465e-05
3.83520504370906e-06,3.44213217625136e-06,1.00236771430729e-05,1.73010143630334e-05
7.27566597056306e-06,7.18381252544416e-06,1.1347903433927e-05,2.58073819299342e-05
5.83895812102551e-06,5.14177477911116e-06,1.03962381519556e-05,2.13769710520923e-05
6.05713723207477e-06,5.34498709923636e-06,9.79061887133213e-06,2.11927432026433e-05
5.19322600843592e-06,5.12313394329672e-06,8.99975370422651e-06,1.93161136559592e-05
5.12707992224031e-06,4.98536886034719e-06,9.21194680501802e-06,1.93243955876055e-05
4.52252254281957e-06,4.61594200780892e-06,9.16361123880654e-06,1.8302075789435e-05
6.50181906856327e-06,6.10448444458077e-06,1.027557552949e-05,2.2881879042634e-05
5.62607080679887e-06,5.01075650760145e-06,9.51514734972361e-06,2.01519746641239e-05
6.59665528981691e-06,5.07437984141555e-06,9.75994497715382e-06,2.14309801083863e-05
7.65977563112708e-06,6.8302173873104e-06,1.24424898602718e-05,2.69324828787093e-05
5.12952450600346e-06,4.8863746483832e-06,9.47854561833718e-06,1.94944447727238e-05
4.89328080180083e-06,4.00593894314152e-06,8.4882847385569e-06,1.73875044834992e-05
1.26016147381592e-05,1.43400876274527e-05,1.38014371956717e-05,4.07431395612837e-05
1.1558636281452e-05,7.82612178373367e-06,1.17777427562819e-05,3.11625008214675e-05
6.06094455215044e-06,4.39112903275875e-06,9.43152784571963e-06,1.98836014306288e-05
7.61071422325903e-06,6.53907161705891e-06,9.95596112188846e-06,2.41057469622064e-05
4.86697138017402e-06,4.11339514423827e-06,8.79607703464382e-06,1.77764435590561e-05
5.16943141513931e-06,4.22242883886614e-06,8.93110188061872e-06,1.83229621346242e-05
6.93365247828615e-06,5.86386954885687e-06,1.10854360064938e-05,2.38829580336368e-05
1.61659388040882e-05,1.54090773672671e-05,2.06816591855136e-05,5.22566753568689e-05
3.56729920043624e-06,3.26278454536084e-06,9.32863297568185e-06,1.61587167214789e-05
9.03596154260321e-06,5.15321905966296e-06,1.02174427061823e-05,2.44066233084485e-05
9.07427797304035e-06,5.96715382752795e-06,9.58486862807929e-06,2.46263004286476e-05
5.45992176705514e-06,4.31752307069691e-06,9.21238427356779e-06,1.89898291113198e-05
6.14363082726191e-06,4.58236528891977e-06,1.00330126645749e-05,2.07590087807566e-05
1.27266853496713e-05,9.80663047321761e-06,1.34263659274569e-05,3.59596817503457e-05
3.42744183724008e-06,2.84232726230996e-06,7.77525072191791e-06,1.40450198214679e-05
3.30178277393415e-06,2.89459895661479e-06,7.85643116308962e-06,1.40528128936386e-05
6.61599407388852e-06,4.79616352357871e-06,1.07171824664584e-05,2.21293400639256e-05
5.53525041314928e-06,4.09954454059149e-06,9.36952867222672e-06,1.90043236259675e-05
4.62675441727342e-06,3.58713486275861e-06,9.12255531044355e-06,1.73364445904756e-05
5.21310077508458e-06,3.97026821000409e-06,9.6491263335159e-06,1.88324953186046e-05
7.15751110365104e-06,5.94246485017645e-06,1.13719408125132e-05,2.44719167663407e-05
4.51140817355846e-06,4.15832259137547e-06,8.10145912404167e-06,1.67711898889756e-05
4.58224619400801e-06,4.16081913409189e-06,8.55492561874515e-06,1.7297990946845e-05
4.74470566443002e-06,4.08566079430734e-06,8.2997854189303e-06,1.71301518776677e-05
0.000310352385487376,0.000669050884019248,0.000683686338253812,0.00166308960776044
0.000353163957658503,0.00126889691510771,0.00111849475031567,0.00274055562308188
7.5357343866285e-05,0.000283713271150442,0.000209089761561445,0.000568160376578172
5.09524526017988e-06,3.49150997734261e-06,8.79826873943476e-06,1.73850239769573e-05
3.59097337810117e-06,4.10302602532917e-06,1.10451976025097e-05,1.873919700594e-05
3.13554002385842e-06,3.1008845223779e-06,8.51501252488592e-06,1.47514370711222e-05
2.58156402909952e-05,1.33774592851645e-05,2.5250065319067e-05,6.44431648952268e-05
7.17210383948787e-06,1.39054071267117e-05,1.64982887103465e-05,3.75757996765461e-05
7.51723139822904e-06,1.29433405742939e-05,1.66962820431655e-05,3.71568540156884e-05
8.7619900351131e-06,6.59242136975763e-06,1.53124597424264e-05,3.06668711472971e-05
7.69733048239136e-06,5.17062879464825e-06,1.34802563242097e-05,2.63482156012493e-05
1.33804872366323e-05,7.94852671609095e-06,1.42659855257442e-05,3.55949994784674e-05
5.6226968653349e-06,5.46004033308897e-06,1.20520121621402e-05,2.31347493605641e-05
4.37133613732057e-06,4.97004409145281e-06,9.81460902596195e-06,1.91559892547353e-05
4.39407368983031e-06,3.72675748251415e-06,9.07696904379703e-06,1.71978002161415e-05
4.86654751463158e-06,3.45077525198727e-06,7.92106261076417e-06,1.6238385377383e-05
4.68630334427032e-06,3.47092030836395e-06,8.33416871300056e-06,1.64913923656348e-05
6.12908837653366e-06,3.83769661678333e-06,8.84520820917701e-06,1.8811993202494e-05
5.38958695711201e-06,3.66105847682875e-06,8.45499549401102e-06,1.75056409279518e-05
3.80376700348545e-06,3.03460486509661e-06,7.62832561872505e-06,1.44666974873071e-05
6.47765570702456e-06,8.51607306462548e-06,8.65227417008113e-06,2.36460029417312e-05
7.3181298539032e-06,1.51437332426589e-05,1.05803624257328e-05,3.30422255222948e-05
5.49756784120818e-05,3.80880390250896e-05,7.50546282877584e-05,0.00016811834572493
0.000129944467280583,0.000317055940515383,0.000212437672812554,0.00065943808060852
2.6480167301731e-05,3.48515835715625e-05,3.30360681681245e-05,9.4367819041418e-05
2.79641456677734e-05,2.83908163897114e-05,2.13227019955697e-05,7.76776640530544e-05
1.54564194421584e-05,4.18287689896497e-06,1.26922329214156e-05,3.2331529262539e-05
1.1522039938911e-05,3.96351618462007e-06,1.1276793942921e-05,2.67623500664521e-05
7.60253155477071e-05,0.00020052037030528,0.000163833135440969,0.000440378821293956
6.83410044786131e-05,0.000142931958360572,0.00011053520981002,0.000321808172649205
0.000335944564855464,0.0012929182499462,0.000934926704796823,0.00256378951959849
5.90697868512683e-05,6.06970568546335e-05,5.95664164178928e-05,0.000179333260123795
0.00046460017587065,0.00196445629244205,0.00132981863019662,0.00375887509850933
0.00026737139946966,0.000535691356730896,0.00041848014676575,0.00122154290296631
2.97835182828935e-05,1.64614151711879e-05,2.90426630441679e-05,7.52875964982492e-05
2.03260146759845e-05,1.29417155587544e-05,2.40383052341611e-05,5.73060354689e-05
0.000170290577484717,4.59808328784022e-05,3.91724836884808e-05,0.0002554438940516
1.59885372916179e-05,9.6577617010106e-06,1.51526519571857e-05,4.07989509498142e-05
5.1775871547116e-05,1.95569930102408e-05,3.86380261049894e-05,0.000109970890662346
3.64592492257593e-05,1.81235735404163e-05,2.50271486091587e-05,7.96099713753344e-05
5.4834567349125e-06,4.73790739264635e-06,9.49419489219554e-06,1.97155590197544e-05
3.26846947099342e-06,2.83435347691695e-06,8.54696784457963e-06,1.464979079249e-05
3.12170289306312e-06,2.98506824174176e-06,8.47247255849624e-06,1.45792436933011e-05
3.15302443525337e-06,3.00504283685358e-06,8.25757058599929e-06,1.44156378581062e-05
3.3239523091072e-06,2.92774286981719e-06,8.26148222113556e-06,1.451317740006e-05
3.23402489273667e-06,2.91614098812418e-06,7.96996579082159e-06,1.41201316716824e-05
3.84955151888347e-06,3.37134243934341e-06,8.60140691540962e-06,1.58223008736365e-05
3.43248054909439e-06,3.03784669335187e-06,8.01693753336939e-06,1.44872647758156e-05
3.4017612296787e-06,2.967451823847e-06,8.03425442410047e-06,1.44034674776262e-05
5.10090419604891e-06,4.4520056083053e-06,9.4077317961905e-06,1.89606416005447e-05
3.00297781862559e-05,1.559886100319e-05,2.60487963249205e-05,7.16774355143663e-05
1.26992359764018e-05,7.88337220412213e-06,2.04499668591459e-05,4.10325750396699e-05
1.36224116931357e-05,6.56854956146424e-06,1.46745154200676e-05,3.48654766746675e-05
5.20501390052778e-06,2.94691656508209e-06,8.01684222057153e-06,1.61687726861814e-05
7.31974149712873e-06,3.97362195844851e-06,8.97462325384273e-06,2.026798670942e-05
4.97983142095555e-06,2.99176112992453e-06,8.44580810806977e-06,1.64174006589499e-05
1.6419572567512e-05,1.13341299969356e-05,2.41881277232907e-05,5.19418302877383e-05
2.47510832722875e-05,1.51260382484529e-05,2.27022722103891e-05,6.25793937311295e-05
1.06559528559864e-05,6.75335901956429e-06,1.41658605206665e-05,3.15751723962172e-05
6.07689294708001e-06,5.43227549550917e-06,9.88377873649833e-06,2.13929471790875e-05
2.84042616787694e-05,1.73379310175613e-05,2.43989157257632e-05,7.01411084220939e-05
2.76246898022597e-05,2.14647067415496e-05,2.94353476776186e-05,7.85247442214279e-05
3.0655853577579e-05,2.24786778392385e-05,2.80387274233817e-05,8.11732588401992e-05
3.96940183386002e-05,4.52169406477655e-05,5.11353841052699e-05,0.000136046343091636
3.11784258365703e-05,2.25918804903431e-05,2.61083799703134e-05,7.98786862972268e-05
6.18317211406828e-05,0.000136777686389029,8.04333602080188e-05,0.00027904276773773
9.10012634880231e-06,7.24906748939304e-06,1.13965722648988e-05,2.77457661030941e-05
5.56882151026255e-06,4.07739084099666e-06,8.44621977299562e-06,1.80924321242548e-05
6.11797779828685e-06,4.96051162098876e-06,9.29295388192745e-06,2.03714433012031e-05
4.7163618009919e-06,4.2320617117422e-06,9.55525658427757e-06,1.85036800970117e-05
3.56158210212494e-05,2.07068150898807e-05,2.77362898278185e-05,8.40589259389487e-05
1.65965279452876e-05,1.45423432336268e-05,1.92739827703998e-05,5.04128539493142e-05
5.14057784376658e-06,3.88437731569509e-06,9.89002867445933e-06,1.8914983833921e-05
1.15231535475056e-05,9.89763564012622e-06,1.59046960466021e-05,3.73254852342339e-05
8.84212040680978e-06,6.37649792339585e-06,1.12509754596327e-05,2.64695937898383e-05
5.29190003391604e-06,3.52832417994623e-06,8.36318871512739e-06,1.71834129289897e-05
5.6898975325762e-06,3.53595763061353e-06,8.68940365287417e-06,1.79152588160639e-05
5.32955510701564e-06,3.98211800171806e-06,8.82191492127345e-06,1.81335880300071e-05
6.76434350109594e-06,5.65262415467835e-06,1.03066230449176e-05,2.27235907006919e-05
1.52355291767836e-05,8.77147501591861e-06,1.47148652651238e-05,3.8721869457826e-05
1.33895260351664e-05,7.42619984640724e-06,1.32018152210392e-05,3.40175411026128e-05
1.40338617327882e-05,1.02026299292945e-05,1.54142769143174e-05,3.96507685764002e-05
1.22054355588361e-05,8.39237759835793e-06,1.46764071096098e-05,3.52742202668038e-05
1.26056007396059e-05,5.98691736903924e-06,1.14721072028098e-05,3.00646253114549e-05
1.97596820334786e-05,1.10478360527672e-05,1.79625165129446e-05,4.87700345991904e-05
8.69589489603491e-06,4.75558105246659e-06,1.1022120946224e-05,2.44735968947255e-05
9.33072994343834e-06,7.76372053934614e-06,1.18984244939992e-05,2.89928749767837e-05
8.13392603379327e-06,4.44163079029474e-06,1.01239314042133e-05,2.26994882283013e-05
9.50394024451726e-06,5.4390483658381e-06,9.58374474838717e-06,2.45267333587425e-05
7.72429805550001e-06,4.5055359030495e-06,8.75811787042524e-06,2.09879518289748e-05
4.81421215749293e-06,3.32022435339343e-06,7.51152004880756e-06,1.56459565596939e-05
6.02437197742046e-06,3.71281093272356e-06,8.08299612913282e-06,1.78201790392768e-05
7.23498098813477e-06,3.86392296495424e-06,8.04718160086778e-06,1.91460855539568e-05
1.95259386422287e-05,9.94788379654417e-06,1.83090490208497e-05,4.77828714596226e-05
5.52810468553985e-06,3.6841070453487e-06,8.19958903168832e-06,1.74118007625769e-05
5.03880138892827e-06,3.31631211685434e-06,8.21840666728539e-06,1.6573520173068e-05
6.55524865937365e-06,4.25233498903407e-06,9.36149732362349e-06,2.01690809720312e-05
7.41150122690486e-06,4.81291461614082e-06,8.94824594428935e-06,2.1172661787335e-05
7.18087559757509e-06,4.60351792388799e-06,9.12940788347419e-06,2.09138014049373e-05
6.73052453020154e-06,6.09173551904174e-06,8.90992838320887e-06,2.17321884324522e-05
6.30847382123785e-06,4.37113957115649e-06,9.37239802591305e-06,2.00520114183074e-05
5.41555684508124e-06,4.1622971854668e-06,8.59656043562716e-06,1.81744144661752e-05
5.54721141251555e-06,3.90967263849395e-06,8.05504378227287e-06,1.75119278332824e-05
5.57455732309707e-06,3.8405898400227e-06,8.62031446450426e-06,1.8035461627624e-05
9.07098613115432e-06,8.43099581127027e-06,1.21140815050752e-05,2.96160634474998e-05
7.66278469955384e-06,4.0927197537207e-06,9.12688949337764e-06,2.08823939466522e-05
9.49420229975884e-06,7.661159042536e-06,1.23808140437551e-05,2.953617538605e-05
1.30766687607235e-05,7.28958272054581e-06,1.39790404178404e-05,3.43452918991096e-05
7.28443457595158e-06,7.02784045304358e-06,1.25126988577286e-05,2.68249738867237e-05
5.97986861452159e-06,4.23568032658704e-06,8.87552668018671e-06,1.90910756212953e-05
8.79292498424542e-06,6.42188051159619e-06,1.11252660100461e-05,2.63400715058877e-05
6.16831056629761e-06,5.32266186158298e-06,1.02987231941909e-05,2.17896956220714e-05
1.39752543559412e-05,6.49803676446464e-06,1.27912370200299e-05,3.32645281404357e-05
5.6621179282542e-06,3.7489646618397e-06,9.34820147613044e-06,1.87592840662243e-05
4.67353071193033e-06,3.73449485255827e-06,8.68443020081777e-06,1.70924557653064e-05
3.96779997644595e-06,3.18720207286198e-06,8.00575498063225e-06,1.51607570299402e-05
4.0430414514356e-06,3.80832723037505e-06,8.57417068071855e-06,1.64255393625292e-05
3.83022055348059e-06,3.56788802862908e-06,8.50406201598366e-06,1.59021705980933e-05
3.71576995481807e-06,3.15766741607626e-06,8.24107947609108e-06,1.51145168469854e-05
6.02362570907264e-06,4.89889607891452e-06,9.48686533695651e-06,2.04093871249437e-05
7.48887528237499e-06,5.08560742106784e-06,9.82268002579019e-06,2.2397162729233e-05
5.5144658189e-06,3.76161719803652e-06,9.04127965871898e-06,1.83173626756555e-05
5.29293519143334e-06,3.75286650214315e-06,8.86311184290474e-06,1.79089135364812e-05
5.12524902718714e-06,3.54281749323582e-06,8.09110028175806e-06,1.6759166802181e-05
4.82426150089399e-06,3.59746284051915e-06,8.01277261847807e-06,1.64344969598912e-05
4.39944309274602e-06,3.19048859648875e-06,7.88991842301324e-06,1.5479850112248e-05
1.76367354247583e-05,7.59712003535004e-06,1.53875916642122e-05,4.06214471243206e-05
1.16324300076739e-05,7.88962737831419e-06,1.42565783991826e-05,3.37786357851707e-05
4.53713201368427e-06,4.62834349197925e-06,9.10807349086009e-06,1.82735489965236e-05
4.90063255768927e-06,4.62986671477447e-06,9.7998989115032e-06,1.93303981839669e-05
1.10123076341213e-05,7.54670526922923e-06,1.16910253154654e-05,3.02500382188159e-05
6.35129744080607e-06,4.75674831195012e-06,9.74775743658865e-06,2.08558031893448e-05
9.63095537087616e-06,6.74663541814614e-06,1.09855307012398e-05,2.73631214902621e-05
7.97273959511576e-06,6.60442391565128e-06,1.14910312190009e-05,2.6068194729768e-05
3.65822365173482e-06,3.3227498536922e-06,7.61957068040104e-06,1.46005441858281e-05
3.25144103231718e-06,3.11057040522407e-06,7.51764989739936e-06,1.38796613349406e-05
4.32860409360734e-06,4.0180513867613e-06,8.08173712073135e-06,1.64283926011e-05
4.11046549137721e-06,3.94302623611807e-06,8.20964326914807e-06,1.62631349966433e-05
8.83454463479149e-06,1.28492777815663e-05,1.37204449888154e-05,3.54042674051732e-05
5.9034648950437e-06,6.2670016987072e-06,8.78546879573779e-06,2.09559353894887e-05
4.40275596637308e-06,3.64776858280903e-06,8.34405716977005e-06,1.63945817189522e-05
5.7424728761894e-06,7.50243754672823e-06,1.06761313493598e-05,2.39210417722775e-05
5.82361978443059e-06,4.42232640446661e-06,9.57845100973979e-06,1.9824397198637e-05
3.7707496737356e-06,3.44083132381505e-06,8.20644242142552e-06,1.54180234189762e-05
1.17855756247855e-05,1.18697038544485e-05,1.51652282147687e-05,3.88205076940027e-05
8.05693769020369e-06,7.57036592476692e-06,9.22596800858433e-06,2.48532716235549e-05
1.15689163168445e-05,5.94914407630768e-06,1.27988358681407e-05,3.03168962612929e-05
6.0118240251647e-06,3.99517601503126e-06,9.53924333875639e-06,1.95462433789524e-05
5.22906685497834e-06,3.78718979596287e-06,9.50237703931068e-06,1.85186336902519e-05
5.13585267475319e-06,4.2064429462793e-06,9.27791771602873e-06,1.86202133370612e-05
5.68696107009488e-06,4.2159395683127e-06,9.47030273417137e-06,1.93732033725789e-05
1.12664052329948e-05,8.86812279400695e-06,1.09038387530599e-05,3.10383667800616e-05
8.72256719325098e-06,6.58866134810357e-06,1.22789679803041e-05,2.75901965216586e-05
2.0116691878328e-05,1.61099408493402e-05,2.00248780011441e-05,5.62515107288124e-05
7.38559907320748e-06,5.3915798115921e-06,1.06755116514461e-05,2.34526905362457e-05
4.73926622083094e-06,3.5790572347936e-06,8.53981913530022e-06,1.68581425909248e-05
3.48791678637456e-06,3.2917201670664e-06,7.64772273013002e-06,1.4427359683571e-05
5.70936313759267e-06,5.18194726631022e-06,9.50117601652383e-06,2.03924864204267e-05
3.45164611631456e-06,3.28040955567264e-06,7.95501570005403e-06,1.46870713720412e-05
3.29341270357187e-06,3.19520867396789e-06,7.48848354752802e-06,1.39771049250678e-05
3.10488712671845e-06,3.11271439657926e-06,7.81689313525062e-06,1.40344946585483e-05
3.82458285181508e-06,3.23094248494229e-06,8.04260204913433e-06,1.50981273858917e-05
1.97354283460542e-05,1.09580185397202e-05,1.62675440994598e-05,4.69609909852342e-05
5.44282910769479e-06,3.88405633285858e-06,8.75755669524223e-06,1.80844421357956e-05
4.32419281920635e-06,3.25941397581514e-06,7.80710961511896e-06,1.53907164101405e-05
8.26318033675495e-06,6.00317991903533e-06,1.18798477339692e-05,2.61462079897594e-05
7.15775342552449e-06,4.99302212788347e-06,9.89648376767963e-06,2.20472593210876e-05
4.93348969527047e-06,3.58315037887822e-06,8.28683845075795e-06,1.68034785249066e-05
4.79930511796874e-06,3.14652109439492e-06,7.32454489272363e-06,1.52703711050873e-05
3.65442133260674e-06,3.13887870201934e-06,7.80466609671715e-06,1.45979661313432e-05
3.87579944334176e-06,3.15565742767116e-06,7.29670748179368e-06,1.43281643528066e-05
7.36198290360135e-06,4.83027623103687e-06,9.2089347960084e-06,2.14011939306466e-05
4.9016431101952e-06,3.55998315228253e-06,8.54074153563722e-06,1.7002367798115e-05
5.89091057279602e-06,3.73380536953455e-06,8.40468009257925e-06,1.80293960349098e-05
5.36573088639103e-06,3.71418700791427e-06,8.43822039448593e-06,1.75181382887912e-05
6.36980901867771e-06,4.26981852542224e-06,9.05023043070616e-06,1.96898579748061e-05
2.19010186035484e-05,1.122881424721e-05,1.38022761335377e-05,4.69321089842961e-05
8.74635919914485e-06,5.72825884192669e-06,1.02677549537513e-05,2.47423729948228e-05
1.42346196639951e-05,5.81104314029406e-06,1.00640163653809e-05,3.010967916967e-05
6.12134706386509e-06,3.54766846080579e-06,7.91941634820789e-06,1.75884318728788e-05
5.02883737497114e-06,3.3163914067929e-06,7.23113985485812e-06,1.55763686366222e-05
6.99763943240389e-06,3.87163633336318e-06,8.36446116236448e-06,1.92337369281315e-05
8.31585163507264e-06,3.80407540259533e-06,8.1003319333374e-06,2.02202589710054e-05
7.82393756292111e-06,3.77564670083596e-06,7.61636227260132e-06,1.92159465363584e-05
7.8805447087761e-06,3.97841395725649e-06,7.73629926938987e-06,1.95952579354225e-05
1.139600802169e-05,7.62660137300247e-06,1.0560838397671e-05,2.95834477923635e-05
1.07936836785475e-05,6.36967529917667e-06,1.24833500635508e-05,2.9646709041275e-05
1.96964764072891e-05,1.64763017374046e-05,1.62226718548973e-05,5.2395449999591e-05
8.72635757410456e-06,5.41803025345683e-06,1.1331931357112e-05,2.54763191846734e-05
1.66029357393523e-05,1.12465860318306e-05,1.10645140238487e-05,3.89140357950316e-05
7.31792474083951e-06,4.16724057014206e-06,8.89897707116051e-06,2.03841423821421e-05
6.79716904939678e-06,4.50584299279791e-06,9.22839938177259e-06,2.05314114239673e-05
1.52428367832015e-05,6.8729981984468e-06,1.10501984782206e-05,3.31660334598689e-05
1.03746634188827e-05,4.2471112999082e-06,8.14837399686064e-06,2.27701487156516e-05
1.02084189181966e-05,3.23108521283895e-06,7.61480378237858e-06,2.10543079134142e-05
1.06481758265377e-05,3.29164154453507e-06,7.85839101565611e-06,2.17982083867289e-05
1.02821421260206e-05,3.11554766946889e-06,7.40128590986224e-06,2.07989757053517e-05
1.25695780808331e-05,3.34138793784213e-06,7.36331601929217e-06,2.32742820379674e-05
1.24845002654054e-05,6.25749021461521e-06,1.10083529453221e-05,2.97503434253428e-05
6.93451299335979e-06,4.5052069788148e-06,7.47554691791404e-06,1.89152668900886e-05
6.57547284756267e-06,3.16495898638931e-06,7.78318209907089e-06,1.75236139330229e-05
6.82783180759721e-06,3.93779489753936e-06,8.11866931613493e-06,1.88842960212715e-05
1.12498269422866e-05,5.58988405774517e-06,9.42990441863251e-06,2.62696154186642e-05
9.0637431048461e-06,3.83962778735535e-06,7.68306832630573e-06,2.05864392185072e-05
8.8376782925643e-06,3.55973913257642e-06,7.85778508885312e-06,2.02552025139938e-05
8.83139011168153e-06,3.99228884275016e-06,7.77061696516967e-06,2.05942959196014e-05
9.70358174057472e-06,3.67963421953291e-06,8.38029018455873e-06,2.17635061446664e-05
1.00016661279619e-05,3.71439465091101e-06,7.72397756716616e-06,2.14400383460391e-05
2.81692479232076e-05,1.36660006246869e-05,1.56030281781976e-05,5.74382767260921e-05
1.48547273881913e-05,8.92784106787239e-06,1.41155327784809e-05,3.78981012345446e-05
7.22972051596325e-06,3.51244755092507e-06,8.09225479676966e-06,1.8834422863658e-05
9.81220509145554e-06,4.65880427289554e-06,9.69847375898516e-06,2.41694831233362e-05
8.14508204843716e-06,3.82878569685194e-06,8.81597550709221e-06,2.07898432523813e-05
8.49659404811071e-06,4.32145491181728e-06,8.93828035923531e-06,2.17563293191633e-05
1.1252226389952e-05,5.9293156799583e-06,1.02900142323079e-05,2.74715563022182e-05
6.70729704645022e-06,3.92591433771797e-06,8.17550652269747e-06,1.88087179068657e-05
4.59369923497481e-06,3.10056822540574e-06,7.62155661043437e-06,1.53158240708149e-05
5.24249564195071e-06,3.69039751301007e-06,7.67789162024062e-06,1.66107847752014e-05
6.07917653517734e-06,3.68279798547539e-06,7.67770181491842e-06,1.74396763355711e-05
5.71038766620847e-06,3.4243145145274e-06,7.68064406238127e-06,1.68153462431171e-05
5.42090662007866e-06,3.83264479488153e-06,7.44149077015145e-06,1.66950421851116e-05
5.31573140777533e-06,3.71190952914185e-06,7.35213250874325e-06,1.63797734456604e-05
1.0380824308875e-05,5.45967301758536e-06,1.09497692002419e-05,2.67902665267023e-05
7.24028345641034e-06,3.35708198707854e-06,7.21130075150826e-06,1.78086661949971e-05
7.36664994372679e-06,3.66990330074956e-06,7.79377294879348e-06,1.88303261932698e-05
4.79719983998284e-06,3.17074989480701e-06,6.74874520580245e-06,1.47166949405923e-05
8.11863072335931e-06,3.17420003483287e-06,7.27758280127687e-06,1.8570413559469e-05
9.41453565553491e-06,3.04983231456383e-06,7.16368830047085e-06,1.96280562705696e-05
1.11563104049313e-05,2.986630090579e-06,7.5638580779657e-06,2.1706798573476e-05
8.95633269797737e-06,4.23887807951506e-06,8.66513135212802e-06,2.18603421296204e-05
7.62088373782552e-06,3.15170553745313e-06,7.20206695004166e-06,1.79746562253203e-05
7.01056092828466e-06,3.22570709192555e-06,7.40449188737198e-06,1.76407599075822e-05
1.58707983103315e-05,1.22519836498901e-05,1.53326926046738e-05,4.34554745648954e-05
2.11584728618283e-05,1.12429725147056e-05,2.5513188114601e-05,5.79146334911348e-05
1.21092374647215e-05,8.40467747265571e-06,1.10682908537105e-05,3.15822057910877e-05
1.26671152521594e-05,7.23508626055496e-06,1.29100634045069e-05,3.28122649172213e-05
1.08716067181077e-05,4.62959933070287e-06,8.73991378006524e-06,2.42411198288758e-05
8.82376722201384e-06,4.68250668911233e-06,8.11529550042235e-06,2.16215694115485e-05
1.40822235065825e-05,4.09089160932765e-06,8.57803950333958e-06,2.67511546192498e-05
3.13815326896376e-05,1.54117637932203e-05,2.2264111454323e-05,6.90574079371809e-05
1.39761438277337e-05,4.1475467742517e-06,8.57149973242429e-06,2.66951903344097e-05
1.24534074176219e-05,3.58493757810944e-06,7.7934097545328e-06,2.38317547502641e-05
1.24995562401516e-05,5.60844680069984e-06,9.12744210834204e-06,2.72354451491935e-05
7.83701693903147e-06,3.53134756942547e-06,7.3450355188e-06,1.87134000272569e-05
1.02756108613586e-05,4.1065707604231e-06,7.58822454170983e-06,2.19704061634915e-05
1.29603605062408e-05,5.09350766224273e-06,8.54228912107297e-06,2.65961572895565e-05
1.23763083954712e-05,3.3664240459299e-06,7.53077806879251e-06,2.32735105101936e-05
1.1995401338702e-05,3.01878072072354e-06,7.30632514878337e-06,2.23205072082089e-05
6.72887826849867e-06,3.43532880828087e-06,7.6433231982541e-06,1.78075302750336e-05
8.79574303820309e-06,5.31643192602918e-06,1.09990762863928e-05,2.51112512506251e-05
2.2437315118644e-05,1.11111678379921e-05,1.53618875685445e-05,4.89103705251806e-05
1.12130061417862e-05,4.7390758911461e-06,9.37430056075453e-06,2.53263825936868e-05
1.21440691629299e-05,3.71780122062816e-06,8.11944450331388e-06,2.3981314886872e-05
5.84188039617701e-06,4.06235374462575e-06,7.92617506807735e-06,1.78304092088801e-05
5.84425868369134e-06,3.8710530751579e-06,7.93765532855041e-06,1.76529670873997e-05
6.7387123297263e-06,3.51200748359416e-06,7.47565680725832e-06,1.77263766205788e-05
6.37145743001558e-06,3.74242922210663e-06,7.71859600905162e-06,1.78324826611738e-05
8.9350659556967e-06,4.80872177157159e-06,9.12553308290867e-06,2.2869320810177e-05
1.63585230026148e-05,4.0254844507541e-06,7.92642397121035e-06,2.83104314245793e-05
9.97819542341238e-06,3.48667478301541e-06,7.06526894561786e-06,2.05301391520457e-05
8.0707055369502e-06,3.04687497144981e-06,7.189537015582e-06,1.8307117523982e-05
9.84968435840757e-06,3.40004724175662e-06,7.39572579120546e-06,2.06454573913696e-05
1.34928123985459e-05,2.95307093134746e-06,6.8361569644025e-06,2.32820402942959e-05
1.52982195509012e-05,3.11752108888559e-06,6.82340051617792e-06,2.52391411559647e-05
6.47809031557575e-06,3.91045075279062e-06,8.22477910309889e-06,1.86133201714653e-05
9.66081348720963e-06,2.9972627622768e-06,7.32165356791145e-06,1.99797298173979e-05
8.89926144203452e-06,3.33105350800834e-06,7.61089054317227e-06,1.98412054932151e-05
5.9247680007935e-06,4.59123504123671e-06,8.27454820920215e-06,1.87905512512324e-05
5.84677832694346e-06,3.95344543801862e-06,8.59629135834834e-06,1.83965151233104e-05
9.35833570513399e-06,3.44706739117843e-06,7.26312881772349e-06,2.00685319140359e-05
8.05862135970568e-06,4.14180344048574e-06,8.5702214270919e-06,2.07706462272833e-05
6.409558659864e-06,3.49060971763058e-06,7.68167514787333e-06,1.75818435253679e-05
6.73180199245507e-06,3.16475399965461e-06,7.47759599298851e-06,1.73741519850982e-05
8.36411932306768e-06,3.28947412705973e-06,7.82328180955821e-06,1.94768752596856e-05
1.92768545181228e-05,1.01634215509808e-05,1.53488291537053e-05,4.47891052228089e-05
8.44945226065106e-05,0.000110675996780533,0.000104603913376803,0.000299774432763848
5.32933055800321e-05,6.72084420139557e-05,6.00683220519481e-05,0.000180570069645936
6.31927025492796e-05,0.000100251480225111,9.38598860994474e-05,0.000257304068873838
0.00086774776055506,0.00233669076762656,0.00245910943405576,0.00566354796223738
0.000352159673812754,0.000994975242344626,0.00110183917687802,0.0024489740930354
0.000467463044454081,0.00156730306331884,0.00187485105753764,0.00390961716531056
0.000621887602429337,0.00168622229238641,0.00187562879173977,0.00418373868655551
5.09047526146436e-05,8.85660360950148e-05,9.86461940226021e-05,0.000238116982732261
4.23166778429055e-06,4.27268800125784e-06,1.08686691031705e-05,1.93730248887189e-05
5.2251900296177e-06,3.84164632042653e-06,9.54577426437117e-06,1.86126106144154e-05
3.83063630518268e-06,3.78132850125418e-06,9.20325176249645e-06,1.68152165689333e-05
4.98132302757037e-06,1.04607365686637e-05,1.98148271653867e-05,3.52568867616207e-05
6.57919663055094e-05,7.32799987071364e-05,7.62889990888098e-05,0.000215360964101455
2.53327793480732e-05,3.47932323099907e-06,9.40640099604069e-06,3.8218503575113e-05
2.18248531573847e-05,8.99460444819781e-06,1.33176742327022e-05,4.41371318382847e-05
9.5241863044635e-06,3.78171100349825e-06,8.83442900484409e-06,2.21403263128058e-05
1.00277639733474e-05,4.37497159922784e-06,8.61468134945287e-06,2.30174169220281e-05
8.2355616921243e-06,3.49081354605026e-06,8.75408606977073e-06,2.04804613079453e-05
9.07663803773464e-06,3.70176884519173e-06,8.38175630767337e-06,2.11601631905997e-05
1.64550415673159e-05,7.77289581545818e-06,1.04878157117515e-05,3.47157530945255e-05
8.19818005438916e-06,4.14044395527143e-06,9.2250756589054e-06,2.1563699668566e-05
2.6202170014817e-05,4.13233608873797e-06,8.96239958159773e-06,3.92969056851527e-05
2.5909445779576e-05,3.59475685465598e-06,8.50884828016612e-06,3.80130509143981e-05
1.61546888446601e-05,3.78079071064378e-06,8.62020785153144e-06,2.85556874068354e-05
1.54222364601989e-05,3.06654631953132e-06,8.07790841250616e-06,2.65666911922364e-05
1.73413572824689e-05,5.67783925015703e-06,1.00052609537953e-05,3.30244574864212e-05
1.76016329617851e-05,3.4275781181802e-06,8.63723460364872e-06,2.9666445683614e-05
8.43819587291253e-06,3.78310055622796e-06,9.28511478869352e-06,2.1506411217834e-05
1.33273985129559e-05,5.44922468137192e-06,1.00203179567102e-05,2.8796941151038e-05
6.50487921810972e-06,3.22007844419887e-06,8.12801007323032e-06,1.78529677355389e-05
1.71512411410642e-05,3.73301469889674e-06,9.26718628624204e-06,3.0151442126203e-05
2.05857276469302e-05,6.75319070039188e-06,1.13881814641569e-05,3.8727099811479e-05
1.89758919412691e-05,3.76523336802756e-06,9.01742229221388e-06,3.17585476015106e-05
1.80606867145038e-05,3.08765927386023e-06,7.77350305095978e-06,2.89218490393238e-05
9.75507459423174e-06,2.96694063990975e-06,7.79997734803058e-06,2.05219925821721e-05
1.02991404403641e-05,3.05619107658557e-06,8.01656555255661e-06,2.13718970695063e-05
1.42165833322705e-05,3.61527440207401e-06,8.60447006078126e-06,2.64363277951258e-05
9.95695333310282e-06,3.24572328527998e-06,8.27921335371921e-06,2.1481889972102e-05
7.81702671195896e-06,3.48331864660578e-06,8.50861475244869e-06,1.98089601110134e-05
7.2507908419664e-06,4.01167896317034e-06,9.88841307535316e-06,2.11508828804899e-05
8.62082320455846e-06,3.17905777465879e-06,8.04113146388014e-06,1.98410124430974e-05
1.71252862228155e-05,6.37737983999727e-06,1.11942284501141e-05,3.4696894512927e-05
2.24822943346303e-05,3.37981181819956e-06,8.03992703341454e-06,3.39020331862444e-05
2.86646732025589e-05,4.1434974962646e-06,9.41430354613096e-06,4.22224742449544e-05
2.64377259584004e-05,3.90942033264595e-06,8.87356883427103e-06,3.92207151253174e-05
2.66093334609394e-05,4.03077651178944e-06,8.87108568667886e-06,3.95111956594077e-05
2.39982744472977e-05,4.12224839355411e-06,8.52934428789012e-06,3.66498671287419e-05
2.38397345157172e-05,4.20631971037944e-06,9.24620750686984e-06,3.72922617329665e-05
2.05510579485129e-05,3.95679891752709e-06,8.2727127747209e-06,3.27805696407609e-05
1.29891026840946e-05,2.73834933498869e-06,6.99513094604152e-06,2.27225829651248e-05
1.60665987610622e-05,2.89497679605651e-06,7.05751564828539e-06,2.60190912054041e-05
2.19781800146804e-05,4.45694773713911e-06,8.1625524161706e-06,3.45976801679901e-05
1.83130633293236e-05,7.17093776259744e-06,1.08333045434671e-05,3.63173056353881e-05
1.61833891409781e-05,7.18585688138398e-06,1.218135819279e-05,3.55506042151521e-05
9.1720181949653e-06,3.28479044860761e-06,8.28048581344176e-06,2.07372944570147e-05
6.6734922847958e-06,3.61460681051065e-06,8.06825073254781e-06,1.83563498278543e-05
6.82186066036822e-06,3.02546361650243e-06,7.639426744384e-06,1.74867510212546e-05
6.55808705993731e-06,3.79736482039292e-06,8.11795712998412e-06,1.84734090103144e-05
8.95486287124849e-06,3.93365755161035e-06,8.09502876038832e-06,2.09835491832472e-05
9.0531965642354e-06,3.18591953893958e-06,7.48220229127763e-06,1.97213183944526e-05
7.46893627415513e-06,3.21884046127109e-06,7.81281360127092e-06,1.85005903366972e-05
1.06886830537651e-05,5.40632705304369e-06,1.13173086998227e-05,2.74123188066314e-05
1.65179890001038e-05,5.91709509347253e-06,1.22142928304851e-05,3.46493769240615e-05
1.46826918083636e-05,1.26166929299473e-05,1.60266279145792e-05,4.33260126528901e-05
0.000209015486315262,0.000622435089907159,0.000591969270543982,0.0014234198467664
7.88565330154204e-05,7.74328951470672e-05,8.64026665761874e-05,0.000242692094738675
1.96961186825885e-05,4.28092444345618e-06,2.06883302806853e-05,4.466537340673e-05
0.000439414912671292,0.00111022551894334,0.00132810766800959,0.00287774809962422
4.04832455514037e-05,6.55135685606609e-05,7.42715402645557e-05,0.00018026835437662
2.0792258796798e-05,1.40797429296087e-05,2.06657366214127e-05,5.55377383478194e-05
0.000157623074118021,0.000440628164234845,0.000571873672966096,0.00117012491131896
0.000170848185315727,0.000364447666632881,0.000269455213785435,0.000804751065734043
7.78977919438677e-05,0.000111221541102136,7.17215908298243e-05,0.000260840923875828
4.53710279803664e-05,2.4265959240583e-05,3.36307954015781e-05,0.000103267782622527
4.75906421409677e-05,1.47958734363466e-05,2.97978053517676e-05,9.21843209290819e-05
4.68246205739242e-05,3.56301604526378e-05,4.72299271794829e-05,0.000129684708206045
4.16287805683988e-05,1.96378962537631e-05,3.23115290241626e-05,9.35782058463246e-05
3.77573034423754e-05,3.87664213280392e-05,4.18157893123933e-05,0.000118339514082808
9.11766823438109e-05,0.000148058528413415,0.000101359670377649,0.000340594881134876
6.59257779089423e-05,0.000218721163618358,0.00021897826891932,0.00050362521044662
0.000100872473435131,0.000242213382733237,0.000268108052512575,0.000611193908680943
3.09521949636952e-05,2.91071238213297e-05,2.61782428876855e-05,8.62375616727105e-05
0.000128203580160867,0.000199879236460494,0.0002196953773865,0.00054777819400786
0.000280603751659576,0.000670825019281932,0.000587627002871027,0.00153905577381253
3.73500833176324e-05,5.03420542130958e-05,6.63454636334866e-05,0.000154037601164215
3.7027213071029e-05,2.29635618243696e-05,4.20160563973846e-05,0.000102006831292783
1.8361156716758e-05,1.58269821747637e-05,4.65734956389682e-05,8.076163453049e-05
0.000200301860077028,0.000555073196723119,0.000509073166569429,0.00126444822336958
4.25575451280818e-05,5.23161143654918e-05,5.51450484680706e-05,0.000150018707961644
0.000106152954354249,0.000172621908965892,0.000132149350748993,0.000410924214069134
8.57680231716909e-05,0.000100964381897492,0.000103029877622067,0.00028976228269125
0.000150006257347728,0.000515941359807149,0.000400219545719912,0.00106616716287479
0.000114263179902113,0.000282444568999041,0.000237214575409623,0.000633922324310777
8.84593539433899e-05,0.00019013217240399,0.000162326573640862,0.000440918099988242
2.83562978351174e-05,1.09415161516152e-05,1.93801821649025e-05,5.86779961516351e-05
