potencia_x,potencia_y,potencia_z,potencia_total_xyz
2.58322626526261e-05,0.000347133280810068,0.00027928140600103,0.000652246949463724
2.09256368526323e-05,2.58485450438971e-05,3.31693824417083e-05,7.99435643382377e-05
3.41549961826091e-05,2.58241996993963e-05,2.81893806243652e-05,8.81685765063707e-05
3.26279478803189e-05,3.16835866356407e-05,2.84244244259398e-05,9.27359589418994e-05
1.13916751585218e-05,1.43328160749623e-05,2.00652860494021e-05,4.57897772828862e-05
2.27561333207647e-05,1.74300906037035e-05,2.05664236064895e-05,6.07526475309577e-05
3.40634442306277e-05,4.35478782225781e-05,4.58088288531644e-05,0.00012342015130637
3.95192468063654e-05,2.94931733159252e-05,0.000111419307249832,0.000180431727372123
6.54177118050955e-05,8.8975095982817e-05,0.000103186847467655,0.000257579655255568
3.36022472142545e-05,6.23634627546664e-05,5.27817970920167e-05,0.000148747507060938
3.25837932165009e-05,3.16957518705111e-05,4.52700687129142e-05,0.000109549613799926
3.06847775826238e-05,4.0432427368166e-05,3.73910056518049e-05,0.000108508210602595
2.58248218168723e-05,5.11549685167744e-05,3.51212325940377e-05,0.000112101022927684
0.000136741944420215,0.000387919427904274,0.000152430338648879,0.000677091710973368
0.000459774994416616,0.00123319834691352,0.00062972331251981,0.00232269665384994
0.000504662125662088,0.00180885350800797,0.000748336456193973,0.00306185208986403
0.000143485820327376,5.76738647509245e-05,7.67174372743534e-05,0.000277877122352654
4.90773526830025e-05,6.72730198691669e-05,5.94448032590272e-05,0.000175795175811197
0.00020426636133994,0.000548060711158573,0.000200959877883141,0.000953286950381654
0.000188027912237117,0.000328514253007866,0.000134749357397145,0.000651291522642128
7.49435679215478e-05,3.14454098606557e-05,6.06125539372444e-05,0.000167001531719448
8.5518077953861e-05,0.000100356769831589,8.44420057816575e-05,0.000270316853567108
0.000165750616404377,0.000392971954663076,0.000199686250088873,0.000758408821156326
9.82678462523358e-05,0.000204430845758785,0.000162653868815561,0.000465352560826682
0.00053132632462694,0.000353386223351853,0.000311642087822581,0.00119635463580137
0.000356147850511851,0.00105229607532989,0.000424382381937344,0.00183282630777908
6.45826379774985e-05,6.51129368463005e-05,6.28078059249993e-05,0.000192503380748798
1.22349358045773e-05,4.52326894146849e-05,2.90301616301945e-05,8.64977868494567e-05
3.78783671329954e-06,3.89435928503923e-06,1.1433072198722e-05,1.91152681970608e-05
0.000542253690492887,0.00180777798164491,0.000584165299993609,0.00293419697213141
0.000177894173619666,0.000478950972215264,0.000159659013903418,0.000816504159738348
0.000724595358412262,0.0019795211152926,0.00071348251891101,0.00341759899261587
0.00014380030761713,0.000259349780016569,8.94259580587005e-05,0.0004925760456924
2.93966201497573e-05,2.04790492717456e-05,3.47849766680246e-05,8.46606460895275e-05
7.90424373277049e-06,6.40344376551123e-06,1.56069791670637e-05,2.99146666653454e-05
6.46494047965463e-06,5.78490490801599e-06,1.8575124002398e-05,3.08249693900686e-05
7.17422984279954e-06,8.57349086643417e-06,1.73319560051007e-05,3.30796767143344e-05
0.000164266253777832,0.000329106179143281,0.000176388093582285,0.000669760526503398
0.000102927833734181,0.000343392251107119,0.000107893040398552,0.000554213125239852
1.47364043881279e-05,2.22762169634597e-05,2.53593521961175e-05,6.2371973547705e-05
0.000100818927163893,0.000274687677505317,0.000108290652837143,0.000483797257506353
0.000183074192665163,0.000472697126735647,0.000148401199907832,0.000804172519308642
0.00115997238353226,0.00143281269397267,0.00128955013589003,0.00388233521339495
0.000767263969546937,0.000602430845291082,0.00117982781877563,0.00254952263361364
0.000478974441362569,0.000235459847373597,0.000297022286311206,0.00101145657504737
0.000412476214934202,0.000180970088311719,0.000166078937586311,0.000759525240832233
4.18362462526062e-05,5.94696517015404e-05,4.66922866656075e-05,0.000147998184619754
0.000101333738786672,0.000137446149633609,7.84388619422585e-05,0.000317218750362539
6.99538946198733e-05,0.000105943035587858,5.31972228234395e-05,0.000229094153031171
0.00010364197285473,0.000175994969680085,0.000105203218743661,0.000384840161278476
0.00010376647463639,0.000210896990022692,0.000136441178013886,0.000451104642672968
2.33176642421125e-05,3.07263583583742e-05,3.37467809901305e-05,8.77908035906172e-05
7.30610877946157e-06,1.2173581273491e-05,1.54610176928068e-05,3.49407077457593e-05
0.000103389436312648,0.000333567644163235,0.000145210479845835,0.000582167560321718
7.63485256188056e-05,0.000209959696152543,9.58023044433748e-05,0.000382110526214724
4.79756324197217e-05,0.000110495141626815,4.56112204729966e-05,0.000204081994519533
4.16057359760605e-05,4.49492073107609e-05,3.30915331818632e-05,0.000119646476468685
8.41997347243144e-05,0.000114871621666459,0.000102995111385494,0.000302066467776267
4.35834044521387e-05,2.07579349246742e-05,3.79028581320988e-05,0.000102244197508912
0.000320967386907547,7.97668996426487e-05,8.43576915077154e-05,0.000485091978057911
1.91046331576474e-05,9.56162056629974e-06,3.02841193744529e-05,5.89503730984001e-05
0.000152227696871039,0.000180341892945548,0.000129668227881764,0.000462237817698351
3.03563398502502e-05,1.78874152960304e-05,3.06168755075715e-05,7.88606306538521e-05
1.23627168312461e-05,9.90328874630072e-06,2.13945913315953e-05,4.36605969091421e-05
6.94573480493644e-06,6.08853723059967e-06,1.52018582171774e-05,2.82361302527135e-05
1.21328519566775e-05,1.80865486390417e-05,1.71948180426458e-05,4.7414218638365e-05
0.000106657414547813,0.000276553536514872,8.79769800323294e-05,0.000471187931095014
1.41377599830033e-05,1.72934062656642e-05,1.98983391988256e-05,5.13295054474931e-05
6.65320356360097e-06,5.92797164861814e-06,1.19724242497048e-05,2.45535994619239e-05
4.72513783027012e-06,4.51958744034849e-06,1.0189939313956e-05,1.94346645845746e-05
2.95988886843124e-05,2.49294200833201e-05,2.87307892905551e-05,8.32590980581876e-05
8.01230416354916e-05,9.11462463121031e-05,6.0524616350006e-05,0.000231793904297601
8.31300972485596e-06,6.36803799767796e-06,1.78429285619118e-05,3.25239762844457e-05
4.66777163933205e-06,3.25990057239207e-06,1.06709981712916e-05,1.85986703830157e-05
4.05976994837337e-06,2.90446088688926e-06,9.51229012814032e-06,1.64765209634029e-05
4.59430688475825e-06,2.98497556653515e-06,9.68239862630629e-06,1.72616810775997e-05
8.35796503067893e-06,6.11372836911525e-06,1.28597088889771e-05,2.73314022887713e-05
2.66167561469209e-05,1.37709515905042e-05,2.83590743250393e-05,6.87467820624644e-05
5.77252724153091e-06,4.0592806471631e-06,1.06833179600098e-05,2.05151258487038e-05
4.22993128247673e-06,2.96799431812625e-06,9.18237188449897e-06,1.63802974851019e-05
4.17371821730511e-06,2.99431501685515e-06,9.80430564750744e-06,1.69723388816677e-05
4.36793544993806e-06,2.93140224159958e-06,9.18438412133482e-06,1.64837218128725e-05
3.88784111588271e-06,2.68325684800583e-06,8.6880417026527e-06,1.52591396665412e-05
4.30927327621222e-06,2.89699299111002e-06,8.89804151748006e-06,1.61043077848023e-05
4.59818063002637e-06,3.78353729931321e-06,8.51958248852375e-06,1.69013004178633e-05
4.27382382057482e-06,3.70269711777863e-06,9.09793560056524e-06,1.70744565389187e-05
1.90212435820523e-05,1.31089203350985e-05,1.84685937191933e-05,5.05987576363442e-05
0.000119955634529529,0.000188138886949885,7.37317256548829e-05,0.000381826247134297
0.000106015323582162,0.000132636803848235,6.92677210357224e-05,0.000307919848466119
4.58645306655972e-05,0.00012079077629805,4.12532404478782e-05,0.000207908547411525
7.04174322432778e-06,5.84041004646202e-06,1.17980536285225e-05,2.46802068993123e-05
7.07948700823203e-06,8.16144631064359e-06,1.70696522552584e-05,3.2310585574134e-05
8.29749587764856e-05,0.000194568330883452,0.00013156784897461,0.000409111138634548
2.30428618485464e-05,1.57027017321493e-05,1.97832089426169e-05,5.85287725233126e-05
2.20961466563681e-05,1.57419540631279e-05,2.02281172924287e-05,5.80662180119247e-05
3.84306713142599e-05,6.35524340064127e-05,2.90447975772231e-05,0.000131027902897896
0.000139371774352189,0.00018565324580552,0.000303108361894642,0.000628133382052351
7.27371954269026e-05,9.0957148427262e-05,7.77245586689333e-05,0.000241418902523098
4.74019114575574e-05,5.52616671303412e-05,5.76250381571195e-05,0.000160288616745018
0.000165983789843223,0.000213504814493797,0.00013094796058957,0.00051043656492659
1.80729281666121e-05,1.39852923485875e-05,2.22002023641102e-05,5.42584228793098e-05
1.78536406058043e-05,1.18840841263696e-05,2.05717337769468e-05,5.03094585091207e-05
6.58294225812378e-06,5.12376602278837e-06,1.37114534052097e-05,2.54181616861218e-05
3.89768641128468e-05,1.28790023237817e-05,3.29334499792004e-05,8.47893164158288e-05
8.99234151862391e-05,0.000122156413233642,0.000113818339694291,0.000325898168114172
1.39988983172329e-05,1.30981868584419e-05,1.86718631394954e-05,4.57689483151702e-05
3.766237786862e-05,6.19438831345834e-05,3.94321904787911e-05,0.000139038451481995
1.1130250461761e-05,6.46937091129896e-06,1.53736546149949e-05,3.29732759880549e-05
7.41586839401769e-05,0.000173802086521151,7.54520064120059e-05,0.000323412776873334
5.95656586010795e-05,6.57399917817356e-05,4.23454022177021e-05,0.000167651052600517
4.63532094749827e-05,9.49821274296572e-05,3.95846263445585e-05,0.000180919963249198
2.16811737185357e-05,1.30266468119189e-05,2.08049155751054e-05,5.551273610556e-05
1.14996816582323e-05,8.69387226752691e-06,1.48195589918746e-05,3.50131129176338e-05
1.17979427623212e-05,7.44041893617483e-06,1.62835338556507e-05,3.55218955541468e-05
6.65515012454188e-05,7.05214363627954e-05,4.59793719589161e-05,0.00018305230956713
0.000138756990498315,0.000112572739853114,0.000197505363698355,0.000448835094049785
9.71954854748955e-06,6.30490304324614e-06,1.83784809494387e-05,3.44029325401744e-05
1.09908708556701e-05,7.96164765798578e-06,1.63115573677205e-05,3.52640758813764e-05
4.4738617149544e-06,3.04826139499551e-06,1.08422853813044e-05,1.83644084912543e-05
1.79616733890126e-05,1.11354952438545e-05,2.64395280612112e-05,5.55366966940783e-05
4.02854629381308e-05,1.94780020793348e-05,2.98577337864845e-05,8.96211988039502e-05
4.24516175818717e-05,4.12127424730591e-05,3.33453251118087e-05,0.000117009685166739
9.34718098698083e-05,5.00486677350942e-05,3.81868877528484e-05,0.000181707365357751
5.08869663829409e-05,5.05197664986314e-05,3.66057714617018e-05,0.000138012504343274
2.02439727612377e-05,1.23026826223454e-05,2.36209822271688e-05,5.61676376107519e-05
0.000102103156123901,0.000148098048414908,7.12386961208272e-05,0.000321439900659637
9.97155999919506e-05,0.00020512836825761,0.000130374294983924,0.000435218263233485
0.000148366050365328,0.000215265703883625,0.000105269473939516,0.000468901228188469
1.90656623115327e-05,9.91294244874254e-06,1.94120565125109e-05,4.83906612727862e-05
7.58281147587328e-06,4.9874230379209e-06,1.38016775954383e-05,2.63719121092325e-05
3.98889861099476e-05,5.53728182508567e-05,3.56047281555353e-05,0.00013086653251634
3.70148910690117e-05,1.00771208743907e-05,2.189946008412e-05,6.89914720275225e-05
1.88424442423223e-05,2.76433897841397e-05,2.69052284798331e-05,7.33910625062951e-05
2.19937437183662e-05,2.64803685649679e-05,2.91338591271848e-05,7.76079714105188e-05
1.56643668101064e-05,1.35389730152557e-05,3.89235949387606e-05,6.81269347641227e-05
6.67839643849917e-05,6.36968124448744e-05,8.95312903847007e-05,0.000220012067214567
2.82668803687038e-05,2.1955984526041e-05,2.77846143415596e-05,7.80074792363044e-05
3.08811675286673e-05,3.04396122426498e-05,3.05485571106954e-05,9.18693368820125e-05
1.41848517721685e-05,1.13960965433911e-05,1.93692054725911e-05,4.49501537881507e-05
2.1956597500779e-05,3.54997840365665e-05,8.01343511888098e-05,0.000137590732726155
1.60199635342887e-05,1.01655846110024e-05,2.10673268585605e-05,4.72528750038516e-05
2.64995303888085e-05,3.93083229563975e-05,2.75806861869577e-05,9.33885395321638e-05
9.77556275686814e-05,0.00018593271285165,9.52785772669799e-05,0.000378966917687312
1.08932152172563e-05,1.02228228546702e-05,1.80397735067571e-05,3.91558115786836e-05
2.19364997074232e-05,2.23740667386027e-05,3.48358935486127e-05,7.91464599946386e-05
9.03736531591032e-05,0.000217599669687599,8.52690041890707e-05,0.000393242327035773
1.95983419683597e-05,1.49657692726288e-05,2.01129451862217e-05,5.46770564272102e-05
7.84173845193981e-06,7.1611760256002e-06,1.23454739798917e-05,2.73483884574317e-05
1.4083207270099e-05,1.14904604458444e-05,1.79905199648348e-05,4.35641876807782e-05
0.000168865367930047,0.000408608148229797,0.000139049365378304,0.000716522881538149
2.57549223738918e-05,1.68795232304651e-05,2.45677704917248e-05,6.72022160960817e-05
5.64546714055069e-06,4.10023910157469e-06,1.22282263413145e-05,2.19739325834399e-05
4.73246886082379e-06,3.34880386252052e-06,1.16063020591632e-05,1.96875747825075e-05
5.62726215058928e-06,3.95595200337246e-06,1.17869243858316e-05,2.13701385397934e-05
4.61859033894674e-05,3.73983143057251e-05,2.87085001334069e-05,0.000112292717828599
2.1941753329828e-05,1.57132801936534e-05,2.04931531173862e-05,5.81481866408676e-05
1.10399048784573e-05,8.21273696243432e-06,1.4530787930928e-05,3.37834297718196e-05
1.71059161514368e-05,3.21936958260599e-05,1.86079932904796e-05,6.79076052679764e-05
5.36270003929318e-05,0.000141388660799901,6.4222402254856e-05,0.000259238063447689
7.2750455559041e-06,5.82621491913879e-06,1.23984010050969e-05,2.54996614801398e-05
5.56671541402957e-05,0.000132339228548009,7.52090248008227e-05,0.000263215407489127
1.69607582147165e-05,3.14391703590078e-05,2.15595742758685e-05,6.99595028495928e-05
7.46608795888505e-06,5.59078281286975e-06,1.56622457111059e-05,2.87191164828607e-05
1.20798931878439e-05,8.9732241754997e-06,1.68326533956281e-05,3.78857707589717e-05
8.42346706636255e-06,5.78376002833661e-06,1.3519008700158e-05,2.77262357948571e-05
8.07046202041108e-05,0.000158697270447968,0.000128654200630375,0.000368056091282454
2.36243083994055e-05,2.32403208379737e-05,2.59913464094729e-05,7.28559756468521e-05
1.12497377825511e-05,8.96921478241974e-06,1.71176655619233e-05,3.73366181268942e-05
0.000286748829346796,9.16087230609655e-05,0.000129855841084153,0.000508213393491914
4.40817721155853e-05,5.40917616849947e-05,2.74633891599541e-05,0.000125636922960534
0.000103125156223559,0.000160430155376191,8.50344924079876e-05,0.000348589804007737
8.61215631130337e-06,9.45150023190439e-06,1.42899380718139e-05,3.23535946150216e-05
0.00016763221367278,0.000190972572340822,0.000128515164843665,0.000487119950857266
0.000140886795559763,0.000179847392711902,0.000158924848253943,0.000479659036525609
4.0532477539175e-05,6.7346930785631e-05,3.40103098479081e-05,0.000141889718172714
0.000234000184692028,0.000538195836320276,0.000283506593046347,0.00105570261405865
0.000210776243948262,0.00049588937707499,0.000205554346378772,0.000912219967402024
8.2160220084769e-05,0.000144411343918578,0.000132675078509674,0.000359246642513021
2.82818087734831e-05,2.28690450782546e-05,2.70296020328174e-05,7.8180455884555e-05
2.00086423035335e-05,1.08395028364455e-05,2.35899740116552e-05,5.44381191516341e-05
6.22786573575312e-06,5.46023116643863e-06,1.44838949156538e-05,2.61719918178456e-05
0.000227701552872623,0.000468351952079565,0.000323689278943269,0.00101974278389546
4.19150288768434e-05,9.25850425865522e-05,7.87174855704003e-05,0.000213217557033796
0.000113464193426452,9.16979454402884e-05,0.000152381976260679,0.00035754411512742
0.000136690042743561,0.000213647045781603,0.000202527160376003,0.000552864248901167
0.000107067616600523,0.000119989927644798,0.00013423209984084,0.000361289644086161
0.00014598945904595,6.55428005790323e-05,0.00012515324458047,0.000336685504205452
0.000112789069997015,0.000249862571235804,0.000106483531372175,0.000469135172604995
2.99820493150838e-05,1.8918497482154e-05,4.03187953941345e-05,8.92193421913724e-05
2.39022509904276e-05,1.05190763340121e-05,3.98118903738352e-05,7.42332176982749e-05
3.88184156427498e-05,0.000108917661970455,7.45050708648982e-05,0.000222241148478103
0.000110159194916705,6.99327451729763e-05,0.000120591790063761,0.000300683730153442
7.8906473364601e-05,4.65550370151348e-05,6.12676162890065e-05,0.000186729126668742
0.000122616625699099,0.000245213315933683,0.000193058245971246,0.000560888187604028
8.96282155533737e-05,8.00957391017115e-05,0.000150364117545856,0.000320088072200941
0.000104945813351613,0.000141629914415295,9.89210684194785e-05,0.000345496796186387
1.43986181279631e-05,1.00624453185547e-05,2.07987396828902e-05,4.5259803129408e-05
0.000121450676227337,0.000329689816355069,0.000267198299683189,0.000718338792265595
7.8721156687518e-05,8.13558420728211e-05,0.00011235791875847,0.000272434917518809
0.00011390701568073,9.87207558361697e-05,0.000126229840751336,0.000338857612268236
2.96416048362294e-05,3.21551577522419e-05,3.7357447730803e-05,9.91542103192743e-05
2.1909581973977e-05,1.99984678629805e-05,2.69486255906587e-05,6.88566754276161e-05
1.58679587198726e-05,1.27600239741514e-05,2.23771475511102e-05,5.10051302451342e-05
3.29787403878136e-05,5.5670717278421e-05,4.45801327447081e-05,0.000133229590410943
0.000247134573792196,0.000363511159881809,0.000260564225129604,0.000871209958803609
4.10575228129702e-05,1.74827157977599e-05,3.37790456856913e-05,9.23192842964214e-05
0.000133436088172272,9.69495225730647e-05,0.000111498128966912,0.000341883739712248
5.93135485535297e-05,4.66614920983752e-05,3.87764487338674e-05,0.000144751489385772
5.0525290947638e-05,0.00011446735442539,6.94317224760665e-05,0.000234424367849095
4.92421909739795e-06,3.85143642946952e-06,1.03902708027175e-05,1.9165926329585e-05
7.07840111359112e-06,5.09704102138785e-06,1.31601488526676e-05,2.53355909876466e-05
6.08829301467822e-06,4.33683254511588e-06,1.17088664022393e-05,2.21339919620334e-05
4.52039087034659e-06,3.87092520089991e-06,9.32876160195579e-06,1.77200776732023e-05
3.63011193200336e-05,4.39840209846063e-05,3.79629543343293e-05,0.000118248094638969
6.55008130311529e-05,0.000137343057999054,9.05865176953406e-05,0.000293430388725547
8.94973486066689e-06,6.05856812290765e-06,1.6309296352587e-05,3.13175993361615e-05
1.76403763941482e-05,7.76029014574684e-06,1.7327748453082e-05,4.2728414992977e-05
6.53355700664096e-05,0.000131835066297448,5.97831322211938e-05,0.000256953768585052
6.70216376963008e-05,8.48634889550122e-05,7.74532718401474e-05,0.00022933839849146
2.21280693080204e-05,2.05898351533689e-05,2.46664408177861e-05,6.73843452791754e-05
1.01905003147585e-05,1.43661004255669e-05,2.30339807564759e-05,4.75905814968012e-05
2.73744452033855e-05,2.50070542826496e-05,2.49654412584197e-05,7.73469407444548e-05
6.36551726593378e-06,6.11634840161501e-06,1.80567336738574e-05,3.05385993414062e-05
3.2564845006058e-05,3.01688286800284e-05,3.68003226587208e-05,9.95339963448072e-05
1.37153487728877e-05,1.3212026800084e-05,1.67917346535897e-05,4.37191102265614e-05
1.80168559199604e-05,7.22246668848306e-06,1.36499017857986e-05,3.8889224394242e-05
4.88755280798936e-05,5.98649003148274e-05,4.19882827849998e-05,0.000150728711179721
4.79087442116016e-05,5.20805932958253e-05,6.40078382773026e-05,0.000163997175784729
1.60260428873622e-05,8.64411892411091e-06,1.8877498373403e-05,4.35476601848761e-05
8.46296618210113e-06,6.0808541978895e-06,1.49119809212689e-05,2.94558013012596e-05
1.35693873953256e-05,1.02621419329254e-05,1.58290242739353e-05,3.96605536021863e-05
7.2292522402453e-05,0.000305182710025724,0.000133964275952527,0.000511439508380704
0.00015704018205203,0.000217764059382585,0.000135036275834222,0.000509840517268837
0.000156821042646501,0.00034330235818254,0.000325610812805945,0.000825734213634986
6.48075308129206e-05,0.00013149301865835,7.66785359748634e-05,0.000272979085446134
0.000154047816180148,0.00034778611924657,0.000264646727756281,0.000766480663182999
5.8632257922429e-05,9.88274397163451e-05,7.7735094691619e-05,0.000235194792330393
9.1966382252888e-06,6.67153169035602e-06,1.87599392480117e-05,3.46281091636565e-05
1.20519986567404e-05,8.57370790030837e-06,1.89064003793348e-05,3.95321069363836e-05
2.96741332792098e-05,1.41235661564632e-05,3.12328793841347e-05,7.50305788198077e-05
1.81304762623557e-05,1.05022005088303e-05,1.94074845122961e-05,4.80401612834821e-05
2.08185105804722e-05,1.69531873148297e-05,2.83917475831666e-05,6.61634454784685e-05
0.00011730389826986,0.000312729126127616,9.48462354851614e-05,0.000524879259882637
9.53618212736134e-06,5.55295747998967e-06,1.56777631127461e-05,3.07669027200971e-05
3.44185698975418e-06,2.6185981098284e-06,9.93841916810223e-06,1.59988742676848e-05
4.26784617646676e-05,4.85921193968779e-05,3.70843644620146e-05,0.00012835494562356
9.18535070767577e-05,0.000198667890213121,9.91044728005523e-05,0.000389625870090431
3.48286436213487e-05,1.73810593151503e-05,2.51557492382783e-05,7.73654521747773e-05
7.22337940094528e-05,2.5985451038882e-05,4.14194985524979e-05,0.000139638743600833
5.19639562326708e-05,1.67035945249346e-05,2.87148504048825e-05,9.73824011624879e-05
2.93771074400499e-05,2.09119017647352e-05,3.33545872374724e-05,8.36435964422575e-05
9.59010903094431e-05,0.000217332110040387,7.68273473818202e-05,0.00039006054773165
1.53097962795961e-05,1.27403194785641e-05,1.85802926242765e-05,4.66304083824367e-05
2.23102802915653e-05,3.25113311504255e-05,2.14190487383839e-05,7.62406601803748e-05
1.48940671216305e-05,1.44691299036258e-05,1.83796005194476e-05,4.77427975447039e-05
1.23495388002385e-05,7.35174634672348e-06,1.63983623428427e-05,3.60996474898047e-05
2.58637734377016e-05,2.11917569895713e-05,2.76317291560322e-05,7.46872595833051e-05
8.29148720268874e-06,6.08957490535615e-06,1.42005088460559e-05,2.85815709541008e-05
7.25912003673479e-06,5.76134731218079e-06,1.23268271896611e-05,2.53472945385767e-05
7.40430355432764e-06,6.09769005770649e-06,1.17682963858871e-05,2.52702899979213e-05
3.99691385085183e-05,8.10214007354441e-05,4.00464975297716e-05,0.000161037036773734
1.28263935548664e-05,9.47328446876477e-06,1.41878751392506e-05,3.64875531628818e-05
1.14157496832748e-05,1.43375608563486e-05,1.43447203775673e-05,4.00980309171907e-05
7.62875661941691e-06,7.90410516734882e-06,1.06365470018048e-05,2.61694087885705e-05
1.44483384192265e-05,2.54867630911583e-05,1.5196286765827e-05,5.51313882762118e-05
1.91902374822863e-05,2.1594322079111e-05,2.13754198241075e-05,6.21599793855047e-05
9.3870370285383e-06,1.26796260606036e-05,1.22112251731168e-05,3.42778882622587e-05
5.35473028738633e-06,5.39839973186366e-06,1.12527257108657e-05,2.20058557301157e-05
1.38993184885337e-05,1.62075403461519e-05,1.75659765360247e-05,4.76728353707102e-05
1.2969887547342e-05,7.58287561765451e-06,2.12873679442677e-05,4.18401311092641e-05
6.53899204528562e-06,4.69374737610151e-06,1.16835865720576e-05,2.29163259934447e-05
5.45980146265049e-06,4.88080504632991e-06,1.30715244808822e-05,2.34121309898626e-05
1.99370121533161e-05,9.72914102158492e-06,2.3214433340743e-05,5.2880586515644e-05
1.80921366058944e-05,1.15034971301621e-05,2.11584635315616e-05,5.07540972676182e-05
7.29463051657168e-06,6.81584851695479e-06,1.07778085782899e-05,2.48882876118163e-05
1.38915081195315e-05,1.71758411197283e-05,1.61116512749694e-05,4.71790005142293e-05
7.99041832708408e-06,6.81215297572683e-06,1.25280810660234e-05,2.73306523688343e-05
2.59707094021099e-05,3.8084952682471e-05,3.92247344944254e-05,0.000103280396579006
3.20826532916845e-05,2.37539988060789e-05,3.48343978102964e-05,9.06710499080598e-05
3.93799982765812e-05,3.73002438058548e-05,3.24922909177941e-05,0.00010917253300023
2.12811140314754e-05,1.82799840220974e-05,2.10036024851379e-05,6.05647005387107e-05
1.75229680428165e-05,1.14053518469154e-05,1.69677759362131e-05,4.5896095825945e-05
1.55755987743356e-05,1.59333909693514e-05,1.77809313653493e-05,4.92899211090363e-05
6.82626865268674e-05,0.000141392158204634,8.26833308962566e-05,0.000292338175627758
6.04806503408655e-05,0.000148841629851426,9.38670135387058e-05,0.000303189293730998
0.000103430377706347,0.000121049705189439,0.000100721983444045,0.00032520206633983
0.000170970785696538,0.000437966559661356,0.000231714794131108,0.000840652139489002
3.18924378111739e-05,3.81098992625439e-05,2.36436952263912e-05,9.36460323001091e-05
9.21143455001867e-05,0.00023005036732093,8.96322259113894e-05,0.000411796938732506
2.49210012530977e-05,3.79513008372532e-05,2.4710833321657e-05,8.7583135412008e-05
1.40975923876621e-05,1.63551501810252e-05,1.71118144041082e-05,4.75645569727956e-05
1.5166559099131e-05,1.09845685741691e-05,2.16187733406649e-05,4.7769901013965e-05
3.89527496535923e-05,5.28082600866956e-05,2.63160136730552e-05,0.000118077023413343
9.17543482382331e-05,9.4456877602851e-05,9.65732607382827e-05,0.000282784486579367
1.50561744872281e-05,1.52841893545307e-05,1.7599080073388e-05,4.79394439151467e-05
3.33257204091796e-05,7.34801273900201e-05,3.83576095023251e-05,0.000145163457301525
5.8228908001667e-05,0.000118186234094824,9.15870040396714e-05,0.000268002146136163
9.22683455733968e-06,8.69787480003963e-06,1.49731732606452e-05,3.28978826180246e-05
1.72410981751516e-05,3.7776906170423e-05,2.26458246905321e-05,7.76638290361067e-05
2.0578433092086e-05,4.21493614202463e-05,3.87025904856227e-05,0.000101430384997955
5.34757594108048e-05,0.000102671754548536,9.22929404460738e-05,0.000248440454405415
1.65062031807087e-05,1.4162594989428e-05,2.44591559741409e-05,5.51279541442776e-05
1.91120041427172e-05,2.15281958769877e-05,3.15376025448771e-05,7.2177802564582e-05
7.72642754946392e-05,0.000206335926315108,0.000130272060641405,0.000413872262451152
4.18804970970864e-05,3.82004399328505e-05,3.37072110090792e-05,0.000113788148039016
3.68846163240038e-05,4.57063669825059e-05,3.36015163512643e-05,0.000116192499657774
2.15983452694533e-05,2.39826296585861e-05,4.64449204792158e-05,9.20258954072552e-05
7.80818034200634e-06,5.37290245272857e-06,1.32969324206873e-05,2.64780152154222e-05
2.66040201297144e-05,7.14734031114056e-05,5.10091358638276e-05,0.000149086559104947
0.000139748045777225,0.000353645154885079,0.000261685465580018,0.000755078666242323
0.000141428856019958,0.000210075841774843,0.000127887981982187,0.000479392679776989
6.87713680737048e-06,5.42791170733169e-06,1.34010182778687e-05,2.57060667925709e-05
0.000103049345304872,0.000298679712250519,0.000193274352107447,0.000595003409662837
7.58940486285276e-05,0.000171982836250878,0.000169545581012355,0.00041742246589176
0.000106609198696018,0.000231042102859095,0.000209686070279094,0.000547337371834207
2.52956669527991e-05,3.88657796663023e-05,3.26192782781357e-05,9.67807248972371e-05
9.92170376202779e-06,6.89330812724077e-06,2.07069015511188e-05,3.75219134403873e-05
5.80376023031441e-05,2.97751025605221e-05,4.60600902752307e-05,0.000133872795138897
2.88017813006709e-05,3.08619960312669e-05,3.67268885853839e-05,9.63906659173217e-05
5.86862900886653e-05,5.78998543343336e-05,4.27311550265496e-05,0.000159317299449549
0.000381144291133226,0.000741658106751047,0.000148118650643202,0.00127092104852748
0.000210196166276876,0.000369185239981531,9.57256606730492e-05,0.000675107066931457
0.000901201946926042,0.00161142640420509,0.000669770669184194,0.00318239902031532
0.000118939213373003,0.000445236897996136,0.000245062193566854,0.000809238304935994
5.0638106962219e-05,1.66222286783383e-05,3.53137006541669e-05,0.000102574036294724
3.82563140091367e-05,4.06689572481291e-05,5.16460232899017e-05,0.000130571294547168
4.43745635032644e-05,3.51948086739628e-05,5.5338600566299e-05,0.000134907972743526
9.34768333520846e-05,0.000216923154089356,6.73389621067106e-05,0.000377738949548151
8.11675853400593e-05,0.000166464518868646,0.000149254353117234,0.000396886457325939
0.000127721964617134,0.000394002862256411,0.000163668437852589,0.000685393264726134
4.3791852033896e-05,0.000159448406395361,7.93640831929947e-05,0.000282604341622252
2.27856642764093e-05,6.5030862914073e-05,6.24420105504606e-05,0.000150258537740943
1.05959144951259e-05,1.94978646694693e-05,3.97286615830908e-05,6.9822440747686e-05
2.3769480921939e-05,6.23713660860205e-05,4.60093055640728e-05,0.000132150152572032
6.04303812804687e-06,5.40131395673892e-06,1.29780305169803e-05,2.4422382601766e-05
1.29099984578053e-05,1.85079586483031e-05,1.79138026872152e-05,4.93317597933236e-05
3.80272950929591e-05,2.84971091502345e-05,2.86250013160639e-05,9.51494055592574e-05
2.26437197436705e-05,1.12291098204954e-05,2.24236576986303e-05,5.62964872627962e-05
1.30462684819284e-05,6.88355560060449e-06,1.6935114526892e-05,3.68649386094249e-05
2.8331857486487e-05,1.57075927854761e-05,2.73075805095393e-05,7.13470307815024e-05
2.44569030457673e-05,1.79553478807058e-05,2.37640203660101e-05,6.61762712924833e-05
2.1381208516289e-05,8.93321503124192e-06,1.73901900148361e-05,4.77046135623671e-05
1.47572805306449e-05,1.07184972545212e-05,1.45914195801576e-05,4.00671973653237e-05
8.78924794139919e-05,0.000128538364744184,8.16963680063518e-05,0.000298127212164527
4.2083925668914e-05,7.08054799548853e-05,4.06219304088572e-05,0.000153511336032656
2.90205091201955e-05,3.0299870234827e-05,3.61572787485069e-05,9.54776581035295e-05
4.59498394800441e-05,6.03460687288194e-05,4.4260142191549e-05,0.000150556050400413
1.57967528490916e-05,1.84797354137421e-05,2.01549515843004e-05,5.44314398471342e-05
1.27287087465637e-05,8.40966563407126e-06,1.59111487163053e-05,3.70495230969403e-05
5.61524807174891e-06,4.29435335814011e-06,1.03421647321114e-05,2.02517661620005e-05
1.24566829694304e-05,9.89008631093094e-06,1.53913277930795e-05,3.77380970734408e-05
6.26569996982378e-06,5.318365160312e-06,1.18304529424236e-05,2.34145180725593e-05
2.77480568388002e-05,4.77352289599676e-05,2.86018617492378e-05,0.000104085147548006
6.63405409725694e-06,4.49556062748097e-06,1.12239095339118e-05,2.23535242586497e-05
3.55205885711738e-06,3.16294270100333e-06,7.39019088773453e-06,1.41051924458552e-05
3.63503491637753e-06,3.39762549318259e-06,7.95593800344999e-06,1.49885984130101e-05
3.22322243601787e-06,2.84607965889359e-06,7.1543241654547e-06,1.32236262603662e-05
3.12522278949643e-06,2.57356723804282e-06,7.16344395038161e-06,1.28622339779209e-05
3.2496072104094e-06,2.7514131558256e-06,6.81014290084924e-06,1.28111632670842e-05
3.40769851142117e-06,2.77878162767432e-06,7.36177150529621e-06,1.35482516443917e-05
3.7809660825973e-06,3.42670388980298e-06,8.42065815846719e-06,1.56283281308675e-05
3.32409415065906e-06,2.72212879788634e-06,8.43769063771603e-06,1.44839135862614e-05
6.81644674836739e-06,7.13623313050396e-06,1.24931259946243e-05,2.64458058734957e-05
1.61140527872666e-05,8.33864426015372e-06,1.58946851416141e-05,4.03473821890344e-05
4.998274691049e-05,8.44279272835221e-05,2.80106826531463e-05,0.000162421356847158
4.47863580471252e-05,0.000120257963563744,0.000133426570352838,0.000298470891963707
9.65594600419227e-05,0.000103631918017038,9.7691018677605e-05,0.000297882396736565
6.83577368255118e-05,7.165503020434e-05,9.49915432701456e-05,0.000235004310299997
0.000113323129422082,0.000101302397153333,9.51531445290515e-05,0.000309778671104467
3.56085212026835e-05,1.48752792670784e-05,2.87324613504638e-05,7.92162618202257e-05
2.16774498504826e-05,1.20826755744779e-05,2.01895457801165e-05,5.3949671205077e-05
3.3479693702896e-05,1.79349201952902e-05,2.9749682479146e-05,8.11642963773322e-05
4.43651158076148e-05,3.11287196060651e-05,4.56331032165079e-05,0.000121126938630188
4.07411449941127e-05,1.81805664553834e-05,3.11028713961764e-05,9.00245828456725e-05
5.00153403412909e-05,2.39465525943874e-05,3.53737966304084e-05,0.000109335689566087
0.00022929685195819,0.000338186120541025,0.000228261198357583,0.000795744170856798
5.75729324316464e-05,8.7825380640148e-05,5.28122082053849e-05,0.000198210521277179
2.25821086507007e-05,1.08751274330363e-05,2.52779982551005e-05,5.87352343388375e-05
2.86710558874761e-05,1.81130901132068e-05,2.02837538806486e-05,6.70678998813315e-05
1.46394352199522e-05,9.28488090330676e-06,1.6408520442704e-05,4.0332836565963e-05
2.28391315874584e-05,3.45185000584694e-05,3.57491496296459e-05,9.31067812755737e-05
0.000149233039486853,0.000323266660242528,0.000196026561809164,0.000668526261538544
6.066147548146e-05,0.000136858434900328,0.000104603379530312,0.0003021232899121
0.00012641932892244,6.81340423668806e-05,5.72342378151554e-05,0.000251787609104476
4.68385136687753e-05,2.80198459691327e-05,4.27250639048579e-05,0.000117583423542766
2.83928526736734e-05,1.45897769057252e-05,2.8937575280518e-05,7.19202048599166e-05
1.89565753862783e-05,9.3700561641092e-06,2.18594622628942e-05,5.01860938132817e-05
2.55695566303179e-05,1.02436761498746e-05,2.73905582982639e-05,6.32037910784563e-05
2.70631161579891e-05,1.45239663995062e-05,2.83782557404303e-05,6.99653382979256e-05
7.49616256100075e-05,3.70647219256084e-05,4.68415165090058e-05,0.000158867864044622
2.1061399979392e-05,9.57621993015975e-06,2.34458967459084e-05,5.40835166554601e-05
4.08314024683921e-05,1.48845641395486e-05,2.78564698432044e-05,8.35724364511451e-05
1.68400455539956e-05,1.02494206994607e-05,1.87900943069037e-05,4.58795605603601e-05
6.1885009621486e-05,5.53581057550154e-05,5.48615325104695e-05,0.000172104647886971
6.55315885151453e-05,0.00016784051960219,6.61057182726209e-05,0.000299477826389956
5.71036085894799e-05,5.57612883150351e-05,5.65049345740652e-05,0.00016936983147858
3.6865879308412e-05,6.43204825068996e-05,3.78140762159711e-05,0.000139000438031283
7.34961314726406e-05,0.000266316328282557,0.00010976826506985,0.000449580724825047
2.66295660525927e-05,6.50844901799567e-05,3.89978042855837e-05,0.000130711860518133
1.99773527387202e-05,1.13560670605168e-05,2.36430666460709e-05,5.4976486445308e-05
1.68580956851716e-05,1.36189393336734e-05,1.55111362177208e-05,4.59881712365658e-05
3.94269689092026e-05,3.34993446333865e-05,3.42359628308029e-05,0.000107162276373392
0.000108492027462114,5.07258709060519e-05,5.726261648279e-05,0.000216480514850956
7.84440804228842e-05,3.34500907888617e-05,4.93475965330492e-05,0.000161241767744795
6.82407806732946e-05,4.25263345860983e-05,5.10387273665954e-05,0.000161805842625988
5.13115095994228e-05,2.75413489482164e-05,4.59265434312681e-05,0.000124779401978907
0.00019026507682848,0.000308174731318387,0.000208885422696539,0.000707325230843407
2.43660464125342e-05,1.48621203806124e-05,2.6313461862215e-05,6.55416286553616e-05
7.00325013628247e-05,0.000142286983803681,9.60727366378163e-05,0.000308392221804322
0.000111188644000342,5.80967612145318e-05,9.24559983547602e-05,0.000261741403569634
6.57804535037962e-05,2.53339129807962e-05,5.23857314554489e-05,0.000143500097940041
5.9413313250351e-05,2.28632035182833e-05,4.37877357653717e-05,0.000126064252534006
3.56189313435759e-05,1.52492420916865e-05,3.32164027292366e-05,8.4084576164499e-05
3.45685020150128e-05,2.0461754748861e-05,2.97127590456132e-05,8.4743015809487e-05
1.71431236436203e-05,9.92692553565289e-06,2.45147009865004e-05,5.15847501657735e-05
3.89521751497032e-05,1.48147601614054e-05,2.34863228194387e-05,7.72532581305473e-05
2.67769941003834e-05,1.29622971427578e-05,2.58352897107199e-05,6.55745809538611e-05
5.32098510664124e-05,2.2015728700657e-05,2.8512739218515e-05,0.000103738318985584
6.92571825475124e-05,2.69495194318941e-05,5.28053891070776e-05,0.000149012091086484
2.19786107356934e-05,1.4058275461301e-05,2.50710573151604e-05,6.11079435121548e-05
5.15782123382134e-05,2.94682028832255e-05,4.09897731492794e-05,0.000122036188370718
7.04836266941496e-05,3.2567487117955e-05,6.22302535532928e-05,0.000165281367365397
0.000112305336730574,0.000234901824813795,0.000135023609757596,0.000482230771301965
3.26065625658343e-05,1.39162188319453e-05,2.53852051559318e-05,7.19079865537114e-05
2.88924983633793e-05,3.59866087201142e-05,2.64140278104445e-05,9.1293134893938e-05
2.59953585006323e-05,1.8001067247984e-05,2.13949462548983e-05,6.53913720035146e-05
7.86739943449644e-06,5.04472957192905e-06,1.49661910854205e-05,2.7878320091846e-05
0.000209041853618612,0.00026538815304889,0.000214893603845744,0.000689323610513247
5.85603313548497e-05,4.20950189366705e-05,5.34151738195088e-05,0.000154070524111029
6.73603662404624e-05,5.35194121970552e-05,3.81362348228259e-05,0.000159016013260343
0.000111889040817129,0.000186155470553701,9.26179314768983e-05,0.000390662442847729
7.97205042515877e-05,0.000114398279861545,9.4058382610848e-05,0.000288177166723981
0.000202200783613838,0.000281441991452629,0.000264180558522669,0.000747823333589136
7.91955407283591e-05,0.000139955771583527,7.0386713639691e-05,0.000289538025951577
1.60004728853018e-05,5.29948438957496e-05,3.10392301419557e-05,0.000100034546923007
2.89305381087694e-05,2.08721717675676e-05,2.82008996051557e-05,7.80036094814927e-05
2.58047786727882e-05,1.80350312681937e-05,3.27440379208812e-05,7.6583847861863e-05
2.81362611618394e-05,5.85034068300035e-05,2.48840756303121e-05,0.000111523743622155
1.52093180428379e-05,6.92560834328567e-06,1.43560601268328e-05,3.64909865129565e-05
2.75001160695208e-05,4.07231669628705e-05,4.17600782965028e-05,0.000109983361328894
3.83251997862734e-05,5.66958379042013e-05,4.15116489210626e-05,0.000136532686611537
5.96004622335728e-05,6.76555498672395e-05,5.40450783027607e-05,0.000181301090403573
4.25828342276224e-05,9.16145926068552e-05,5.89439642851602e-05,0.000193141391119638
0.00018122102592041,0.000326768764238003,0.000162209040755945,0.000670198830914358
5.8887686163608e-05,6.58907313975634e-05,6.1441217361653e-05,0.000186219634922824
2.41297955773987e-05,1.91759028381214e-05,3.06592676139323e-05,7.39649660294524e-05
2.45241574915509e-05,4.19456907938095e-05,4.06922923424977e-05,0.000107162140627858
0.000128044255992917,0.000261515200341324,9.82157502017426e-05,0.000487775206535983
0.000217197696837506,0.000717608045875459,0.000251944237209838,0.0011867499799228
8.26621051939247e-05,7.40661321432277e-05,7.5818693154035e-05,0.000232546930491187
9.20010862355702e-05,0.000217935018193993,0.000160655377563377,0.000470591481992941
6.8079536576387e-05,0.000162283122751515,0.000102504753626539,0.000332867412954441
0.000136509117107689,0.000244143972772471,9.98719232506621e-05,0.000480525013130823
3.67855681882607e-05,2.02722919506748e-05,2.10955725565668e-05,7.81534326955024e-05
7.79244564551674e-06,8.22195708450841e-06,1.32658504188118e-05,2.92802531488369e-05
2.55374808018055e-05,4.26503887186902e-05,4.13923346864295e-05,0.000109580204206925
5.12308685133287e-06,4.58032913271419e-06,1.21931722288672e-05,2.18965882129143e-05
6.15589982997578e-06,4.01005144221043e-06,1.14523274112574e-05,2.16182786834436e-05
4.03039578251381e-06,2.84638683176216e-06,9.50935127681036e-06,1.63861338910863e-05
7.18163293056734e-06,6.06765202798074e-06,9.68653203116665e-06,2.29358169897147e-05
4.23854298751403e-06,3.93486475720168e-06,1.19080339108489e-05,2.00814416555646e-05
1.30135130349089e-05,1.06372831194613e-05,2.75968548871102e-05,5.12476510414804e-05
2.11395328359127e-05,1.62999177706886e-05,2.39286051473271e-05,6.13680557539285e-05
1.18673320501047e-05,1.59977363872282e-05,1.63229830603649e-05,4.41880514976978e-05
2.82137541824891e-05,2.8275091981965e-05,3.10233157029117e-05,8.75121618673657e-05
1.7972285146041e-05,1.82002048200788e-05,3.21744404017748e-05,6.83469303678945e-05
3.27857563064513e-05,2.35858292705496e-05,2.34444036207377e-05,7.98159891977386e-05
2.49163438062565e-05,2.63685013179434e-05,2.48638662057223e-05,7.61487113299223e-05
9.02088335431853e-06,9.69750592244072e-06,1.58734111424909e-05,3.45918004192502e-05
6.00562718922531e-06,5.59100098561004e-06,1.08432036007364e-05,2.24398317755717e-05
1.45197498440442e-05,7.56648953332596e-06,1.56577557962857e-05,3.77439951736558e-05
1.7519584955142e-05,2.73190061985118e-05,3.41069307435382e-05,7.8945521897192e-05
3.08119750485125e-05,3.83628696026155e-05,3.13489553160148e-05,0.000100523799967143
5.14225770425642e-05,0.000215153813754917,5.91435537103842e-05,0.000325719944507866
3.5908223656429e-05,2.25720185301716e-05,3.42328890003136e-05,9.27131311869142e-05
7.94213019662716e-06,6.30402730197985e-06,1.53087466586058e-05,2.95549041572128e-05
7.7800940927609e-06,5.84089247025186e-06,1.50131711875837e-05,2.86341577505964e-05
7.93945265020205e-06,7.51996592839631e-06,1.86980021035964e-05,3.41574206821947e-05
8.51114697193914e-06,7.16018939789095e-06,1.88976937609353e-05,3.45690301307654e-05
1.05789325896929e-05,9.28723191675591e-06,1.91304763379444e-05,3.89966408443932e-05
2.20347001414858e-05,3.04074052138026e-05,3.42339372900018e-05,8.66760426452902e-05
1.60307905508443e-05,1.18554535474038e-05,2.25789183397606e-05,5.04651624380086e-05
6.95605187964802e-05,0.000116873621874512,6.52330288100181e-05,0.00025166716948101
4.47543874066194e-05,8.72177833002823e-05,6.92262382555085e-05,0.00020119840896241
0.000151212679254014,0.000240087823374457,0.000136443058500687,0.000527743561129158
0.000205574061370269,0.000291779299070795,0.000229469183654259,0.000726822544095322
3.03362880455818e-05,4.5297065558062e-05,4.73412224433501e-05,0.000122974576046994
5.70519455767952e-05,0.000139540781531877,7.66329794997084e-05,0.00027322570660838
6.68651653709381e-05,0.000188999112476734,7.77457734968423e-05,0.000333610051344514
9.27105289430254e-05,0.000201578473289768,0.000107355449463658,0.000401644451696451
4.92611771637134e-05,7.85081623062997e-05,4.89637053205345e-05,0.000176733044790548
3.19668469686956e-05,2.91120409229825e-05,3.99664064291895e-05,0.000101045294320868
1.91333059013034e-05,2.56692985788631e-05,2.38249047181105e-05,6.8627509198277e-05
2.90709675852826e-05,2.44637817826315e-05,2.38346837299895e-05,7.73694330979036e-05
9.5638270365345e-05,0.000122606361950386,6.40891982733107e-05,0.000282333830589041
4.86364639706136e-05,5.2323256524578e-05,5.89138440242019e-05,0.000159873564519394
0.000124562290329366,0.000162106316654955,8.28839769532409e-05,0.000369552583937562
0.000259509868752275,0.000665613995204617,0.000349615582094808,0.0012747394460517
2.18955651399804e-05,2.24967844533089e-05,3.30362325546367e-05,7.74285821479261e-05
0.000189123186778852,0.000248611380083968,0.000125424953635645,0.000563159520498465
0.000218463325437817,0.000258254767593502,0.000174101602139503,0.000650819695170822
9.37117255701713e-05,0.000172511335713972,9.59478637836364e-05,0.00036217092506778
2.45759383490836e-05,1.93575263272337e-05,3.26234218811221e-05,7.65568865574393e-05
0.000116944117751903,5.24249766718191e-05,6.0944057525582e-05,0.000230313151949304
1.76786314313257e-05,1.08447507028438e-05,2.32391479200055e-05,5.17625300541749e-05
3.28628973794327e-05,1.63507896504834e-05,3.29185737437635e-05,8.21322607736796e-05
1.42258436279931e-05,8.78888675441966e-06,1.69957019102687e-05,4.00104322926814e-05
0.000143158217833465,7.19610944483822e-05,0.000105389091478198,0.000320508403760045
1.9131898573591e-05,1.14814076257148e-05,2.24153286329708e-05,5.30286348322767e-05
1.1159399782733e-05,6.3812340619302e-06,1.43750706718578e-05,3.1915704516521e-05
1.0798359211238e-05,5.2214643876559e-06,1.23611214642733e-05,2.83809450631671e-05
1.89762221938581e-05,8.784314160586e-06,1.96047882850536e-05,4.73653246394977e-05
1.83984808804073e-05,7.46148781583056e-06,1.79036262390089e-05,4.37635949352467e-05
1.85465787686891e-05,1.2379884276895e-05,2.3372865572156e-05,5.42993286177402e-05
1.68769357350794e-05,9.12357938563223e-06,2.06418799783128e-05,4.66423950990244e-05
1.89995972879875e-05,1.5195642945077e-05,2.66940024074635e-05,6.08892426405281e-05
1.85376474364537e-05,1.23847629929586e-05,2.29520795854964e-05,5.38744900149087e-05
1.23874447167009e-05,8.12458045308158e-06,2.01586499829703e-05,4.06706751527527e-05
1.41672916362513e-05,8.29981707512335e-06,2.14109381899006e-05,4.38780469012753e-05
2.07499773711389e-05,1.63667670922876e-05,2.94351483611192e-05,6.65518928245457e-05
1.95943652752704e-05,3.28535963113862e-05,3.15715921956845e-05,8.40195537823411e-05
4.96658004040369e-05,5.50029205582363e-05,5.92452123417342e-05,0.000163913933304007
0.000219264669441935,0.000448174867019893,0.000221831261458923,0.00088927079792075
0.000121428259272454,0.000268657024079123,0.000169752591964634,0.000559837875316212
9.67697689491703e-06,1.38646876184914e-05,2.23858735780874e-05,4.59275380914959e-05
1.16186167584645e-05,1.13674082702659e-05,2.06491881556423e-05,4.36352131843726e-05
1.07039912950171e-05,1.21746712105926e-05,3.46229311269729e-05,5.75015936325826e-05
7.94909637464039e-06,7.67024938167137e-06,1.26851266072151e-05,2.83044723635268e-05
1.00675412345388e-05,1.31650489484068e-05,3.89700267680927e-05,6.22026169510382e-05
6.54843676100013e-06,8.02090633300374e-06,2.34546524825368e-05,3.80239955765406e-05
1.87377152380612e-05,1.58084979022512e-05,3.52014342229625e-05,6.97476473632748e-05
1.56019023031033e-05,1.57018380110061e-05,2.46592148917897e-05,5.59629552058991e-05
1.19745382980064e-05,1.58060711556232e-05,2.530916134814e-05,5.30897708017697e-05
3.47407912091427e-05,2.0141037258015e-05,3.08328073147656e-05,8.57146357819233e-05
7.58620115741736e-06,5.97937727966366e-06,1.27798502069034e-05,2.63454286439844e-05
2.14173505076654e-05,1.74129940365067e-05,2.47312982256287e-05,6.35616427698008e-05
9.42197060464934e-06,7.40293412511624e-06,1.19507602692255e-05,2.87756649989911e-05
7.16156029705376e-05,0.000156297095972491,4.82215087598448e-05,0.000276134207702874
1.45375374643754e-05,1.85354467983672e-05,1.87069624240769e-05,5.17799466868196e-05
5.64959735750524e-06,4.55047301915093e-06,1.00685667070775e-05,2.02686370837337e-05
6.00893697116458e-06,7.01112258857946e-06,1.10202877264845e-05,2.40403472862285e-05
1.09450239735226e-05,8.54984022809503e-06,1.62905839773158e-05,3.57854481789334e-05
5.90635321776786e-06,5.32770898835203e-06,1.15585910249288e-05,2.27926532310487e-05
1.17795642393072e-05,7.25662731160936e-06,1.38221964140634e-05,3.285838796498e-05
7.77258880836635e-06,8.06418559468211e-06,1.154125196734e-05,2.73780263703884e-05
4.02448755796135e-06,6.1874799061757e-06,1.59214990550169e-05,2.61334665191539e-05
4.59023442245846e-06,5.58444077698581e-06,1.10509773753408e-05,2.12256525747851e-05
3.47392767253505e-06,2.95727973846863e-06,8.09768064963777e-06,1.45288880606414e-05
3.55413136663987e-06,3.22329747604655e-06,9.11680722329979e-06,1.58942360659862e-05
4.18228621088257e-06,3.88662162757724e-06,8.5344825325319e-06,1.66033903709917e-05
2.4911331722154e-05,2.25616154467029e-05,3.81841667254903e-05,8.56571138943473e-05
8.24993593271938e-05,8.08629408763857e-05,7.56539379814276e-05,0.000239016238185007
4.16515736590829e-06,6.15793093625556e-06,1.10552383547349e-05,2.13783266568987e-05
8.42683784481113e-06,1.9336299575642e-05,5.59285005253649e-05,8.3691637945818e-05
6.12123011970982e-06,9.67199595880259e-06,3.58815067924142e-05,5.16747328709266e-05
7.55528923617496e-06,5.34745648549633e-06,1.62819775102518e-05,2.91847232319231e-05
2.02555797751614e-05,1.53014782852337e-05,2.67464080662576e-05,6.23034661266527e-05
8.92331870526e-06,8.1279490778585e-06,1.37328277221037e-05,3.07840955052222e-05
1.09872046424998e-05,6.26751337363182e-06,1.30244317382597e-05,3.02791497543912e-05
6.03070892879917e-06,5.68312870721262e-06,1.35314393892344e-05,2.52452770252462e-05
1.35490804857501e-05,8.63261933946987e-06,2.46199794570015e-05,4.68016792822215e-05
8.13843244383735e-06,1.57535005288976e-05,1.81864630228785e-05,4.20783959956135e-05
4.41130800163759e-06,4.98533888119248e-06,9.73961797010077e-06,1.91362648529308e-05
4.22597583189649e-06,5.35288806223312e-06,1.0507983701132e-05,2.00868475952616e-05
1.04604259186307e-05,1.30084914830954e-05,2.04374165046189e-05,4.39063339063449e-05
2.27521575554263e-05,1.16719258045691e-05,2.22493195280862e-05,5.66734028880816e-05
1.66885791639041e-05,1.62809448741669e-05,3.67030713972746e-05,6.96725954353457e-05
0.000179129553327629,0.000180460859019639,0.000144944284137526,0.000504534696484795
8.5737761168053e-06,1.11331942593762e-05,1.75560764808248e-05,3.72630468570064e-05
8.01011302273127e-05,0.000121891246934653,8.02270552255975e-05,0.000282219432387564
2.51182543145216e-05,8.29635435927844e-05,8.76627224772814e-05,0.000195744520384587
1.54105907021579e-05,2.15225411717569e-05,2.31662237279584e-05,6.00993556018732e-05
4.86471159915406e-05,2.44022260425102e-05,9.42473213665094e-05,0.00016729666340056
4.7527955250476e-05,2.74055340368138e-05,7.17078472982625e-05,0.000146641336585552
1.74857257181265e-05,2.38401469923096e-05,2.33219050070453e-05,6.46477777174815e-05
8.40278880779892e-05,7.75302080336475e-05,0.000158372671931531,0.000319930768043168
3.04079655299369e-05,2.32673538149389e-05,2.06311700902812e-05,7.4306489435157e-05
8.07510696118385e-06,8.2736595554076e-06,1.3786452224001e-05,3.01352187405924e-05
1.08648164583058e-05,1.02646484999168e-05,1.9595525613587e-05,4.07249905718096e-05
5.53128354488032e-05,4.15140236223265e-05,9.56067750869583e-05,0.000192433634158088
5.61443954317063e-05,2.8172133295577e-05,5.61839634538681e-05,0.000140500492181151
7.43707258768498e-06,6.99417734550449e-06,1.13304565405867e-05,2.57617064737762e-05
2.94469479260056e-06,2.97072066555119e-06,8.52562188851063e-06,1.44410373466624e-05
3.08007494269331e-06,2.83505744333042e-06,8.13737899412594e-06,1.40525113801497e-05
3.21682461341569e-06,2.99579090364032e-06,8.59764586927934e-06,1.48102613863354e-05
3.42832007776114e-06,3.33991495482283e-06,9.2716519314216e-06,1.60398869640056e-05
3.38106814173013e-06,3.11164588099094e-06,8.16447135860254e-06,1.46571853813236e-05
3.21949876033944e-06,3.43759930221529e-06,8.78328435276998e-06,1.54403824153247e-05
3.04835609917969e-06,3.17230485478777e-06,8.61509975023403e-06,1.48357607042015e-05
7.27329498197617e-06,5.74528163699816e-06,1.33973251387956e-05,2.64159017577699e-05
2.40354994475585e-05,3.25768332425478e-05,3.81191952824125e-05,9.47315279725188e-05
6.33768960756702e-06,5.46030529175535e-06,1.53283837992518e-05,2.71263786985741e-05
1.49643263343209e-05,9.34354067641703e-06,1.85305442466062e-05,4.28384112573442e-05
3.65967989044738e-06,2.79376428488254e-06,7.22979170704443e-06,1.36832358823744e-05
4.98848150130563e-05,3.45857445137243e-05,4.21564489777464e-05,0.000126627008504527
3.7139796406351e-05,2.26945578663488e-05,2.61102158772923e-05,8.59445701499921e-05
7.74942731132198e-06,9.47612497513604e-06,1.95635303532033e-05,3.67890826396614e-05
6.20236264698758e-06,6.18195404161313e-06,1.70085315408539e-05,2.93928482294546e-05
2.35973769371426e-05,2.76747800020538e-05,6.54814633177376e-05,0.000116753620256934
7.01429267570251e-06,1.05318050661702e-05,2.42407538254952e-05,4.17868515673679e-05
5.14734926089014e-06,7.42257726620749e-06,1.63486668053659e-05,2.89185933324636e-05
4.21728594587841e-06,5.31882804991337e-06,9.76860898721028e-06,1.93047229830021e-05
3.58020805389894e-06,4.79029596482536e-06,1.01210695873033e-05,1.84915736060276e-05
5.73544941683379e-06,6.96093179247921e-06,1.20532273793984e-05,2.47496085887114e-05
2.42337197594592e-05,2.27214087458455e-05,3.22074488171445e-05,7.91625773224492e-05
7.48987191740777e-05,8.00266673793503e-05,8.38967613868181e-05,0.000238822147940246
6.28807067916669e-05,9.14534216314757e-05,4.66589727649818e-05,0.000200993101188125
8.92554743441407e-05,0.000196153462671413,0.000125891754267279,0.000411300691282833
0.000298851690608883,0.000570559107194824,0.000335279950509783,0.00120469074831349
7.81920854614428e-05,0.000133420752767846,9.7998067142137e-05,0.000309610905371426
0.000151523169850548,0.000330637560919613,0.000229125061625286,0.000711285792395447
5.2849095304912e-05,4.83608199182392e-05,5.05841072144525e-05,0.000151794022437604
4.19606513955972e-05,5.25911802605962e-05,4.55668348922178e-05,0.000140118666548411
0.000139113544032113,0.000265116784136887,0.000168732226762333,0.000572962554931334
0.000266263566810722,0.000748946615392218,0.000460106023432555,0.0014753162056355
0.000741676754736818,0.00240981183508758,0.00138116860914743,0.00453265719897182
0.00011612196463317,0.00026931697509677,0.000133711299789426,0.000519150239519366
2.299459509034e-05,1.64373684133331e-05,2.61061219000812e-05,6.55380854037544e-05
5.21254010596521e-05,3.60750148581607e-05,7.64474611475016e-05,0.000164647877065314
5.40547870653301e-05,3.6082271212255e-05,6.66308961203613e-05,0.000156767954397946
4.55651605945176e-05,2.91467941112789e-05,8.14408702058396e-05,0.000156152824911636
4.43185803712405e-05,3.10889822234869e-05,5.00520315226259e-05,0.000125459594117353
0.000385484674252494,0.000905480454002661,0.000423200255379547,0.0017141653836347
0.000420869059913923,0.00132879856759856,0.000720997040351249,0.00247066466786374
9.05587318469853e-05,0.000167811438297478,0.00010036989371187,0.000358740063856333
0.00021793649284894,0.000614549509644602,0.000338683721182242,0.00117116972367578
0.000475711013555677,0.00120606494889961,0.000749444418042591,0.00243122038049788
0.000166955743352484,0.000294782700408593,0.000199494087991514,0.00066123253175259
3.74085836748058e-05,4.14593062799183e-05,3.90511186795553e-05,0.000117919008634279
3.5373760180674e-05,4.55087336224417e-05,3.4960785168742e-05,0.000115843278971858
0.000149407013629014,0.000136302430312842,0.000299815297259752,0.000585524741201608
6.59489229022603e-05,8.15962681108154e-05,7.39409015800099e-05,0.000221486092593086
0.000277012051553038,0.000386204205331049,0.000261586339955696,0.000924802596839784
5.98225301458172e-05,2.39125183927949e-05,3.68400362676005e-05,0.000120575084806213
0.000137449879329632,0.000209356044124338,0.000126701426804876,0.000473507350258846
0.00052275030558715,0.00200316900200085,0.00083051659504317,0.00335643590263117
5.55068112578042e-05,0.000128746181617609,5.67482078618982e-05,0.000241001200737311
0.000212069297582397,0.000693877713698791,0.000278660346877005,0.00118460735815819
9.1448854081661e-05,0.000135410820431164,0.000121650516278353,0.000348510190791178
0.000121378740451989,0.000155081177431465,0.000148539160902743,0.000424999078786196
0.000149011561800706,0.000208588779226193,0.000158294889283184,0.000515895230310083
0.000140017457192805,0.000170672027867588,0.000152165465981024,0.000462854951041417
8.50548169686988e-05,0.000132098449121897,7.9061459502058e-05,0.000296214725592654
0.00018066960525963,0.000501376060265383,0.000214401078872324,0.000896446744397337
1.7542258414629e-05,9.19719092391798e-06,2.18674187704438e-05,4.86068681089908e-05
1.81609569219402e-05,2.02976404954853e-05,3.9915601992268e-05,7.83741994096935e-05
5.52246351276785e-05,5.21029846615987e-05,4.43187532388655e-05,0.000151646373028143
0.000625420562465669,0.00172974217061992,0.000738056586057191,0.00309321931914278
0.000420999972013754,0.0012022811246355,0.000483824041572802,0.00210710513822205
0.000257309639927799,0.000236788166092033,0.00019355711562426,0.000687654921644092
5.97430575581384e-05,5.35397784183463e-05,5.45998554112556e-05,0.00016788269138774
0.000360930644132304,0.000621273825285054,0.000440972478698163,0.00142317694811552
0.000484261349926125,0.00151014891379705,0.000769545758591376,0.00276395602231455
0.000170809217236729,0.000482623184446383,0.000212202680177673,0.000865635081860784
4.32079549211389e-05,2.21900873674933e-05,4.83467222646936e-05,0.000113744764553326
5.67960759355829e-06,5.63306741249181e-06,1.68936848202573e-05,2.82063598263074e-05
2.12874000896636e-05,2.14467588290061e-05,3.53083378644006e-05,7.80424967830703e-05
0.000368312400967015,0.000405479330452804,0.00039880591356487,0.00117259764498469
0.000500802128392743,0.00035970509185775,0.000306842726162458,0.00116734994641295
0.000307384193152324,0.000266455330675115,0.000332313568540949,0.000906153092368388
0.000145997333471749,0.000233779829098066,0.00011427926062946,0.000494056423199275
3.98851607341735e-05,2.03442462510258e-05,2.9520922203747e-05,8.97503291889463e-05
6.57832109255273e-05,5.53014022667982e-05,7.98953263813277e-05,0.000200979939573653
0.000161398697052157,0.000290873086708111,0.000173106369065574,0.000625378152825842
5.70736273667979e-05,7.79544028387661e-05,8.30476875737019e-05,0.000218075717779266
0.000107120334770284,7.40530325551716e-05,7.79073503353388e-05,0.000259080717660794
0.000153076773140214,7.65620730597491e-05,9.2204796747655e-05,0.000321843642947618
2.65101592703942e-05,2.10031986632752e-05,3.31033075956209e-05,8.06166655292904e-05
4.29439672534204e-06,3.86823862934839e-06,1.13469334099344e-05,1.95095687646249e-05
5.61267032447627e-06,4.78221667388197e-06,1.19684970828431e-05,2.23633840812014e-05
9.46608239416052e-06,6.85088067126131e-06,1.14183705070194e-05,2.77353335724412e-05
3.92907728287308e-06,3.44600631894518e-06,7.14433597778108e-06,1.45194195795993e-05
8.17863089548607e-06,5.56120067046387e-06,1.16108449729813e-05,2.53506765389313e-05
3.61252431994688e-06,3.32745247002572e-06,7.83297629017595e-06,1.47729530801485e-05
3.99178787249417e-06,3.72759441674038e-06,8.20611355986394e-06,1.59254958490985e-05
6.98938508222429e-06,6.30744209767478e-06,1.14886238181691e-05,2.47854509980681e-05
8.2660317613909e-06,7.45600256124949e-06,1.40412434267071e-05,2.97632777493475e-05
3.40579932371013e-06,4.00509070628717e-06,7.13156280478912e-06,1.45424528347864e-05
9.09198204776166e-06,6.38082349109007e-06,1.24302417335379e-05,2.79030472723897e-05
6.31012344922776e-06,5.27849801506161e-06,1.08929662647212e-05,2.24815877290106e-05
8.75638729700573e-06,9.26465947091276e-06,1.35441588978231e-05,3.15652056657416e-05
5.90537967236698e-06,3.79237255997066e-06,8.59702252153842e-06,1.82947747538761e-05
4.03385501988502e-06,3.40558659044798e-06,8.9194611375704e-06,1.63589027479034e-05
5.06941914260171e-06,4.03134504075852e-06,9.5200481686825e-06,1.86208123520427e-05
3.67674800983643e-06,3.30060465087725e-06,9.18455705836982e-06,1.61619097190835e-05
2.27065689819082e-05,1.5732832975519e-05,2.62933660851631e-05,6.47327680425903e-05
1.45771294983454e-05,1.03048912091497e-05,1.56250246579223e-05,4.05070453654174e-05
3.08146043245853e-06,2.79105799810707e-06,7.86002537571733e-06,1.37325438062829e-05
4.47141189547719e-06,4.31915986342586e-06,9.83313031050591e-06,1.8623702069409e-05
5.91561016107372e-06,5.24973101338545e-06,1.15625302803367e-05,2.27278714547959e-05
5.73111101320296e-06,4.73247639398311e-06,1.15600131192583e-05,2.20236005264444e-05
5.2495719862342e-06,5.30603804222501e-06,9.86225196443223e-06,2.04178619928914e-05
2.81773353373905e-06,2.71821093242897e-06,6.89042185401189e-06,1.24263663201799e-05
2.89999502447703e-06,2.81998739353922e-06,7.1212609412432e-06,1.28412433592595e-05
3.85835067015993e-06,6.19123082520638e-06,8.82486022237371e-06,1.887444171774e-05
6.55259447341181e-06,5.91286095713112e-06,1.29582406821854e-05,2.54236961127283e-05
1.21459443067121e-05,1.23167869043197e-05,1.75172141402527e-05,4.19799453512844e-05
4.24637421869634e-06,3.03788356034371e-06,7.86151775716008e-06,1.51457755362001e-05
3.19376705188482e-06,2.91570437326166e-06,7.77302741519399e-06,1.38824988403405e-05
1.66975324054363e-05,6.96014005875595e-06,1.38462927291658e-05,3.75039651933581e-05
3.77977350395348e-06,3.46794807670138e-06,9.04256584168292e-06,1.62902874223378e-05
3.01011717182337e-06,2.69181506729758e-06,7.01533604824836e-06,1.27172682873693e-05
3.02468770750706e-06,2.90311902542747e-06,7.62192674656804e-06,1.35497334795026e-05
5.38322194575482e-06,6.087761890252e-06,1.04326300017738e-05,2.19036138377807e-05
3.80164949207726e-06,3.7119742896479e-06,9.0904593983118e-06,1.6604083180037e-05
3.25768729618035e-06,2.83694100392275e-06,7.87728385546152e-06,1.39719121555646e-05
2.02942496812344e-05,1.8448331821961e-05,2.44897181213157e-05,6.32322996245111e-05
2.89353167525444e-06,2.63769077357577e-06,7.75767630608107e-06,1.32888987549113e-05
7.11990533635386e-06,5.19919635869089e-06,1.1370526250957e-05,2.36896279460017e-05
3.48356149183217e-06,3.05138409233853e-06,8.76613231261024e-06,1.53010778967809e-05
3.77585293018094e-06,3.09563096969604e-06,8.53052668006454e-06,1.54020105799415e-05
3.24015806944058e-06,2.93116239485186e-06,8.51539711053128e-06,1.46867175748237e-05
6.30811680858741e-06,4.33643568946716e-06,1.12448463308462e-05,2.18893988289008e-05
4.61291663675949e-06,3.74601668117419e-06,1.01854512797513e-05,1.8544384597685e-05
3.84831255104351e-06,2.98869859414668e-06,8.53695139312593e-06,1.53739625383161e-05
2.82507233746187e-06,2.56378229031797e-06,7.53094106617747e-06,1.29197956939573e-05
4.48504600538789e-06,3.40266396123737e-06,9.22682368055087e-06,1.71145336471761e-05
3.72864183980634e-06,3.1331016191493e-06,8.87988666652306e-06,1.57416301254787e-05
3.83745958631831e-06,2.8662736858836e-06,8.34608448752277e-06,1.50498177597247e-05
4.03798428870604e-06,2.95510182962895e-06,9.24441131249188e-06,1.62374974308269e-05
2.94497736176251e-06,2.67851325827919e-06,7.58622269239373e-06,1.32097133124354e-05
2.87089312256692e-06,2.65568301905714e-06,7.82644258366799e-06,1.3353018725292e-05
2.87116994631512e-06,2.65594675117855e-06,7.88314736756698e-06,1.34102640650606e-05
2.93935139546934e-06,2.72117886690962e-06,7.88305380619858e-06,1.35435840685775e-05
3.40789484972849e-06,2.92425380581141e-06,8.75061018731266e-06,1.50827588428526e-05
3.44133510280332e-06,2.97798841636028e-06,8.83846908313289e-06,1.52577926022965e-05
2.97968926169727e-06,2.77649163122153e-06,8.00281306375284e-06,1.37589939566717e-05
3.48475349297999e-06,2.76497847257341e-06,8.95334160765031e-06,1.52030735732037e-05
4.85392946629939e-06,3.8732055440886e-06,9.90741585446225e-06,1.86345508648502e-05
3.32153581187427e-06,2.86740595654094e-06,8.53329505642474e-06,1.472223682484e-05
3.32406223474146e-06,2.75131772446725e-06,8.25253565909931e-06,1.4327915618308e-05
2.95697321820678e-06,2.66251501987684e-06,7.90418307233989e-06,1.35236713104235e-05
3.19730663724825e-06,2.76887215879723e-06,8.49609048443573e-06,1.44622692804812e-05
3.11733644794499e-06,2.76867902511029e-06,8.29280005756891e-06,1.41788155306242e-05
3.1911725486171e-06,2.84645778354156e-06,8.4007660745835e-06,1.44383964067422e-05
3.85215238777882e-06,3.15672679320691e-06,9.01545568754591e-06,1.60243348685316e-05
4.93765388910111e-06,4.76179346151217e-06,1.07869452298818e-05,2.0486392580495e-05
3.03542051606202e-06,2.68463831828843e-06,7.8512634417487e-06,1.35713222760991e-05
3.06779431448543e-06,2.56914467846539e-06,7.94063193795405e-06,1.35775709309049e-05
3.15434626789901e-06,2.73899605920523e-06,7.9535297382922e-06,1.38468720653964e-05
3.37709349982021e-06,2.68894017551623e-06,8.18353476363316e-06,1.42495684389696e-05
3.09422344051672e-06,2.72187390785064e-06,7.74641628886438e-06,1.35625136372317e-05
3.1444918210475e-06,2.84943709540306e-06,8.08769252813719e-06,1.40816214445877e-05
3.24914117812798e-06,2.74763703191187e-06,7.896472569159e-06,1.38932507791989e-05
6.52650356490573e-06,5.9604175860919e-06,1.05299683524718e-05,2.30168895034694e-05
3.07208157018146e-06,2.80435518419086e-06,7.77952357288573e-06,1.36559603272581e-05
3.87975967183437e-06,3.24240354609757e-06,8.34903737282872e-06,1.54712005907607e-05
3.04760317150396e-06,2.62883150487593e-06,7.55862987434922e-06,1.32350645507291e-05
2.9436650548943e-06,2.85807201404649e-06,7.97880257610401e-06,1.37805396450448e-05
3.05095032443814e-06,2.63567026437076e-06,7.62046529285193e-06,1.33070858816608e-05
3.07143078524836e-06,2.70598811732495e-06,8.15316606527598e-06,1.39305849678493e-05
4.13375804210696e-06,4.8933195833355e-06,1.01897330004505e-05,1.92168106258929e-05
3.01469849267874e-06,2.71626849377747e-06,7.71365702613809e-06,1.34446240125943e-05
3.16320695964428e-06,2.70976352055195e-06,7.84824827133643e-06,1.37212187515327e-05
3.09526191193149e-06,2.64183880662782e-06,7.99527495172153e-06,1.37323756702808e-05
4.72465869257881e-06,3.97482838243676e-06,8.61455621313279e-06,1.73140432881484e-05
3.9131717335747e-06,2.8782925905709e-06,7.84531254157745e-06,1.4636776865723e-05
4.02746178730994e-06,2.89263972529642e-06,8.06186620617472e-06,1.49819677187811e-05
3.59635541092662e-06,2.6968218399991e-06,7.57965310904186e-06,1.38728303599676e-05
4.6654860778057e-06,4.15062033955079e-06,1.0397846066273e-05,1.92139524836295e-05
5.34773040841605e-06,4.98901333881302e-06,1.04922809695473e-05,2.08290247167763e-05
4.27982376586084e-06,3.73632001155781e-06,9.68776484740365e-06,1.77039086248223e-05
4.26422823083767e-06,3.42924131823851e-06,9.2704513935131e-06,1.69639209425893e-05
8.57377527013294e-06,5.75182888295525e-06,1.12945119701998e-05,2.5620116123288e-05
6.51272718870568e-06,3.8877755326815e-06,1.00713407341724e-05,2.04718434555595e-05
3.48372200224097e-06,2.91977801897837e-06,7.90241076972289e-06,1.43059107909422e-05
3.50222976495654e-06,2.93647622520594e-06,8.1904699103338e-06,1.46291759004963e-05
4.29146193651399e-06,4.66275456417972e-06,8.48824150702072e-06,1.74424580077144e-05
3.90472350492854e-06,3.24817368907091e-06,8.81464420917159e-06,1.5967541403171e-05
6.66215926214519e-06,5.98016137804153e-06,1.18546349667474e-05,2.44969556069341e-05
3.47050663588528e-06,2.96307201879011e-06,7.82716862827403e-06,1.42607472829494e-05
4.33706988292584e-06,4.00445616855704e-06,1.02476750981985e-05,1.85892011496813e-05
4.77290238903819e-06,4.13127462789304e-06,9.84459202583391e-06,1.87487690427651e-05
3.77513519019651e-06,3.10057026945005e-06,8.25495906430278e-06,1.51306645239493e-05
4.57648528873004e-06,4.10009472628249e-06,1.01403164361952e-05,1.88168964512077e-05
3.50575365765532e-05,3.14664457814905e-05,2.31435946366094e-05,8.96675769946531e-05
5.83669373747033e-06,6.93522767601301e-06,1.20354150938939e-05,2.48073365073772e-05
9.41743618686482e-06,6.58386969591711e-06,1.21762865757758e-05,2.81775924585577e-05
1.94103116898529e-05,4.36222348005183e-05,3.26397805421449e-05,9.5672327032516e-05
3.74257123041131e-06,3.63231483447864e-06,9.24332272729433e-06,1.66182087921843e-05
4.22961711747881e-06,3.55269324835211e-06,9.50462608045154e-06,1.72869364462825e-05
3.28322631418721e-06,3.21801463066389e-06,8.53556406160199e-06,1.50368050064531e-05
3.29379630930798e-06,3.05100083694831e-06,8.71509262116635e-06,1.50598897674226e-05
3.49788231066545e-06,3.21841675862222e-06,8.97658182892772e-06,1.56928808982154e-05
7.44760622809154e-05,8.69950634253104e-05,4.83495431108065e-05,0.000209820668817032
5.76809346590222e-05,5.79614841357244e-05,3.42145654541809e-05,0.000149856984248928
5.21361682016266e-06,5.30289058427158e-06,1.07437428301958e-05,2.126025023463e-05
4.69319330350878e-06,4.39950505684035e-06,9.87859346693678e-06,1.89712918272859e-05
6.30837090941556e-06,6.58630253225995e-06,1.28605747860095e-05,2.5755248227685e-05
4.46621631548155e-06,4.26258206341091e-06,9.78588923262387e-06,1.85146876115163e-05
1.08502148885681e-05,9.89331447759261e-06,1.64955672917924e-05,3.72390966579531e-05
4.8985328325579e-06,3.62990529097343e-06,9.76690563718395e-06,1.82953437607153e-05
3.74079778564847e-06,3.33777294079025e-06,8.34077994506162e-06,1.54193506715003e-05
5.75992573742893e-06,4.19763282996188e-06,1.02027700195873e-05,2.01603285869781e-05
4.21760303803567e-06,3.67220904130887e-06,8.79042116552836e-06,1.66802332448729e-05
3.76051086768079e-06,3.11825134654487e-06,8.19664596875311e-06,1.50754081829788e-05
3.89384946110413e-06,3.81457923583236e-06,8.97500003883374e-06,1.66834287357702e-05
4.50584137411041e-06,3.15642874770002e-06,8.73870521233322e-06,1.64009753341437e-05
4.51112166105338e-06,3.01214541777018e-06,8.55193941695707e-06,1.60752064957806e-05
4.95075100933471e-06,3.98966574700252e-06,1.01320152662407e-05,1.90724320225779e-05
5.32515888698847e-06,6.04142327762535e-06,1.0413178531359e-05,2.17797606959729e-05
4.2585342565809e-06,4.57921758807627e-06,1.02141267164429e-05,1.90518785611e-05
3.57095950604125e-06,3.89048271702503e-06,8.74069859997611e-06,1.62021408230424e-05
3.46035328073392e-06,3.62016582547367e-06,9.14013174063298e-06,1.62206508468406e-05
3.83351286936356e-06,3.80039639778835e-06,9.24606785229172e-06,1.68799771194436e-05
4.02097446455969e-06,4.41885775354161e-06,9.53515659392846e-06,1.79749888120298e-05
3.51954623186944e-06,3.1362308635544e-06,8.480965428056e-06,1.51367425234798e-05
3.67987390429123e-06,3.34796364347462e-06,9.29994729870429e-06,1.63277848464701e-05
3.39949962262853e-06,2.78703653218422e-06,7.74046916550919e-06,1.39270053203219e-05
3.81271209984523e-06,3.51299005223906e-06,8.62792841918019e-06,1.59536305712645e-05
8.56725315672048e-06,1.03181114365153e-05,1.22996286609087e-05,3.11849932541444e-05
3.42525381300958e-06,5.13548085085531e-06,7.99588307524917e-06,1.65566177391141e-05
3.66480455034477e-06,4.34960018891767e-06,8.20432601708002e-06,1.62187307563425e-05
4.49676769968365e-06,4.3373794966723e-06,9.18922802477765e-06,1.80233752211336e-05
3.30123165409362e-06,3.50393030825406e-06,7.73525296931815e-06,1.45404149316658e-05
5.41079879215504e-06,3.45533427041104e-06,8.4820326817475e-06,1.73481657443136e-05
4.06109416199139e-06,4.17035696770878e-06,8.11073293730557e-06,1.63421840670058e-05
4.1600518881911e-06,4.32954572753025e-06,8.12518447412959e-06,1.66147820898509e-05
6.00222415108347e-06,6.239690330953e-06,1.17974868354869e-05,2.40394013175233e-05
9.69392695906643e-06,1.00172864886775e-05,1.50142760452209e-05,3.47254894929649e-05
5.06454329294204e-06,4.88202967782869e-06,8.18756079118093e-06,1.81341337619517e-05
1.15021671680966e-05,1.25977057632787e-05,1.76754924000374e-05,4.17753653314128e-05
1.63374270665486e-05,9.61092270284528e-06,1.56032991655419e-05,4.15516489349357e-05
1.10562875252467e-05,7.12521525444508e-06,1.34191414391843e-05,3.16006442188761e-05
3.03297746084501e-05,4.52811345169882e-05,4.09311237483302e-05,0.000116542032873768
0.000357346993163446,4.51581681061363e-05,3.86834770784189e-05,0.000441188638348001
1.96595608911086e-05,2.57123921420676e-05,4.13057623586704e-05,8.66777153918466e-05
3.74985097975276e-06,3.35555749187902e-06,9.41435056915161e-06,1.65197590407834e-05
3.01979351225482e-06,2.69139138025445e-06,7.86348063215368e-06,1.35746655246629e-05
4.63099982806064e-06,3.81797181220359e-06,8.8786847600868e-06,1.7327656400351e-05
3.89425644186662e-06,3.76421906360908e-06,8.53067919718144e-06,1.61891547026571e-05
4.91202889602034e-06,3.90640648938943e-06,9.59841557641529e-06,1.84168509618251e-05
3.50025625387402e-06,3.02841244946425e-06,7.98687313561474e-06,1.4515541838953e-05
3.10003460470216e-06,2.78514387677202e-06,7.25348027221883e-06,1.3138658753693e-05
3.78826193896275e-06,3.50385045508931e-06,8.01399650934022e-06,1.53061089033923e-05
2.87054893450186e-06,2.69681888226432e-06,7.21003801659995e-06,1.27774058333661e-05
9.24727183113583e-06,1.03336835190504e-05,1.23638322205714e-05,3.19447875707577e-05
3.78123868244634e-06,3.12373150750659e-06,7.98219099876323e-06,1.48871611887162e-05
6.71463361514744e-06,8.05692530310557e-06,1.7291910819879e-05,3.2063469738132e-05
4.95121533729211e-06,3.98209325431534e-06,9.81034872593233e-06,1.87436573175398e-05
3.11160339561282e-06,2.75507326653575e-06,7.36040163099569e-06,1.32270782931443e-05
3.75130146239578e-06,3.80215592830358e-06,8.34451634964633e-06,1.58979737403457e-05
7.56512731674538e-06,7.52551973395114e-06,1.73104207183002e-05,3.24010677689968e-05
1.47078568052483e-05,1.30934875374835e-05,1.88770688839684e-05,4.66784132267003e-05
5.75471266054976e-06,5.72026410151504e-06,9.47736090697197e-06,2.09523376690368e-05
1.99989783294288e-05,1.96778506433217e-05,2.46014012255515e-05,6.4278230198302e-05
2.2381317626883e-05,8.13861721190328e-06,1.63294374800627e-05,4.6849372318849e-05
1.8364055100997e-05,6.88945759867472e-06,1.25166470306861e-05,3.77701597303578e-05
1.31358964824366e-05,1.09746018353724e-05,1.58371417333235e-05,3.99476400511326e-05
2.53708274375591e-05,1.24553301509655e-05,2.08432589498104e-05,5.8669416538335e-05
2.91708815284948e-05,1.30207375133289e-05,2.01670205940534e-05,6.23586396358771e-05
5.86544184502564e-06,7.24232219851208e-06,1.2323442830788e-05,2.54312068743257e-05
6.03425859955115e-06,4.855003568328e-06,1.21367242546171e-05,2.30259864224963e-05
3.26276192732005e-06,3.03856426439428e-06,8.04909043675986e-06,1.43504166284742e-05
2.98668185159858e-06,2.99112090212495e-06,7.30580782033532e-06,1.32836105740588e-05
3.00940574035239e-06,2.94272318567331e-06,7.70425541698405e-06,1.36563843430098e-05
3.29106757533969e-06,2.91739718707133e-06,7.57366295337916e-06,1.37821277157902e-05
3.2176861563638e-06,3.14917841006934e-06,7.87331220487591e-06,1.42401767713091e-05
3.20766549655287e-06,2.72311590774561e-06,7.65896486586946e-06,1.35897462701679e-05
2.98061634835434e-06,2.96323577495574e-06,7.50323221352133e-06,1.34470843368314e-05
3.18826919019006e-06,2.99572322436739e-06,7.33904645306021e-06,1.35230388676177e-05
3.68814859874805e-06,3.06901635926954e-06,8.14050037364857e-06,1.48976653316662e-05
3.67390891890754e-06,3.00893581227411e-06,7.9018609989035e-06,1.45847057300851e-05
3.90728620716614e-06,3.42650511896638e-06,8.47801931892034e-06,1.58118106450529e-05
3.55988679902701e-06,3.3725338056912e-06,8.56084605006336e-06,1.54932666547816e-05
3.07019960081452e-06,3.2154600666945e-06,8.37897009603007e-06,1.46646297635391e-05
4.32623641622003e-06,3.73721525410704e-06,9.16596262967755e-06,1.72294143000046e-05
3.79569874452442e-06,3.72089814848149e-06,8.69046332605475e-06,1.62070602190607e-05
4.48347802188233e-06,3.39333723237934e-06,9.16834023897941e-06,1.70451554932411e-05
1.13292686289595e-05,9.09260848554089e-06,1.39326011166267e-05,3.43544782311271e-05
6.83617656715581e-06,6.99069229480872e-06,1.07323427883548e-05,2.45592116503193e-05
3.9581731582063e-06,3.56743400650132e-06,8.50197820155318e-06,1.60275853662608e-05
2.99450226288818e-06,2.96080956266655e-06,6.93686835295427e-06,1.2892180178509e-05
5.24297645492657e-06,6.86087010526883e-06,1.04192544907856e-05,2.2523101050981e-05
3.83796690964567e-06,3.12790468191611e-06,8.44605971666323e-06,1.5411931308225e-05
3.79880261046299e-06,3.11301866132679e-06,8.20745215522372e-06,1.51192734270135e-05
3.02169092468322e-06,2.69476692897306e-06,6.86864059096124e-06,1.25850984446175e-05
2.72351338024743e-06,2.54417845177574e-06,6.57330058835542e-06,1.18409924203786e-05
3.72841240006368e-06,3.21898380001914e-06,7.38600758541534e-06,1.43334037854982e-05
8.00975941110122e-06,9.71912733605738e-06,1.73435181430295e-05,3.50724048901881e-05
3.75350135526712e-06,3.48348298797637e-06,8.48519770195466e-06,1.57221820451982e-05
4.08415069185842e-06,3.27937604400267e-06,8.13842204389784e-06,1.55019487797589e-05
3.60017962567645e-06,3.64444929895579e-06,8.43977498438123e-06,1.56844039090135e-05
4.73488290743807e-06,4.03720059131052e-06,1.02525926016354e-05,1.9024676100384e-05
7.97080923723404e-05,7.40089066058065e-05,6.36663213100492e-05,0.000217383320288196
6.08326841589525e-06,4.63589023964757e-06,1.06131278897058e-05,2.13322865452487e-05
5.79155303581983e-06,4.02814311567934e-06,9.83642174885215e-06,1.96561179003513e-05
9.37655471042084e-06,4.95403491071024e-06,1.34958348918508e-05,2.78264245129819e-05
7.32917509418022e-06,4.29337668271028e-06,1.07419359448768e-05,2.23644877217673e-05
4.71080985442974e-06,4.14366156434643e-06,1.03596180079999e-05,1.9214089426776e-05
8.64806920691216e-06,4.93348315154334e-06,1.21502804640279e-05,2.57318328224834e-05
1.10359459625296e-05,6.19190299565935e-06,1.34471239488324e-05,3.06749729070214e-05
1.17970545234265e-05,5.40097358968513e-06,1.29554822286672e-05,3.01535103417789e-05
1.07617907551775e-05,5.46701926846834e-06,1.45941389157289e-05,3.08229489393747e-05
1.00211058496113e-05,5.51422258588016e-06,1.50761450316066e-05,3.0611473467098e-05
9.84367377036812e-06,5.50707285173319e-06,1.62173679880074e-05,3.15681146101087e-05
8.87758396666927e-06,5.26460793331136e-06,1.48717725863449e-05,2.90139644863255e-05
1.13805945549441e-05,7.33669251253921e-06,1.6764369691776e-05,3.54816567592594e-05
9.1031719266636e-06,5.39478505226927e-06,1.59191028081442e-05,3.04170597870771e-05
9.8755039668517e-06,5.59423447011307e-06,1.64222976463814e-05,3.18920360833461e-05
1.47567455777397e-05,7.99645734848751e-06,1.93994800651916e-05,4.21526829914188e-05
1.36387426747655e-05,7.61850602551848e-06,2.09941562133037e-05,4.22514049135877e-05
1.59580723991364e-05,1.41399947453673e-05,2.37534989414961e-05,5.38515660859999e-05
1.43024557503782e-05,7.28763372607999e-06,2.1481048911305e-05,4.30711383877633e-05
1.42156928452724e-05,5.93848361066949e-06,2.1074234180892e-05,4.12284106368339e-05
1.55767446240798e-05,7.96172616605292e-06,2.34314850524051e-05,4.69699558425379e-05
1.70040570437719e-05,6.97280493152439e-06,2.27560085417192e-05,4.67328705170155e-05
1.87546690226116e-05,8.26946538986576e-06,2.4125579992669e-05,5.11497144051463e-05
1.92743132434753e-05,9.11675672866345e-06,2.727369867088e-05,5.56647686430188e-05
2.05661142624992e-05,7.81495457331239e-06,2.68808504887203e-05,5.52619193245318e-05
2.32445763617567e-05,8.21283551978e-06,2.98747637144847e-05,6.13321755960214e-05
1.38625568941765e-05,5.51239181060524e-06,1.8263366028796e-05,3.76383147335778e-05
2.8594617472479e-05,8.25468145734409e-06,3.36020848163091e-05,7.04513837461322e-05
1.16822914329753e-05,9.31160283452962e-06,1.68174966321321e-05,3.7811390899637e-05
8.98741179941376e-06,6.07916960400458e-06,1.1824852906756e-05,2.68914343101743e-05
4.36327039798673e-06,3.51694570890387e-06,8.87429742317294e-06,1.67545135300635e-05
5.12268108871759e-06,4.36413209340175e-06,9.1544810878896e-06,1.86412942700089e-05
8.34821683979794e-06,6.94427009622047e-06,1.0200357088308e-05,2.54928440243264e-05
6.81496839684032e-06,5.06750311869349e-06,1.0457479453609e-05,2.23399509691428e-05
4.62759099894164e-06,3.54945288672011e-06,8.04092819844728e-06,1.6217972084109e-05
5.39815214301439e-06,3.69524640939023e-06,8.39669166090467e-06,1.74900902133093e-05
1.35892781375461e-05,1.04319889972165e-05,1.66195059464227e-05,4.06407730811853e-05
5.17791393574637e-06,3.9416165067976e-06,8.41842141779877e-06,1.75379518603427e-05
6.02979593294669e-06,4.13271849952001e-06,8.19195110883543e-06,1.83544655413021e-05
1.36591884899362e-05,8.63578785675318e-06,1.0693529056173e-05,3.29885054028623e-05
1.57624003298973e-05,8.38179596866335e-06,1.15241676237991e-05,3.56683639223597e-05
1.65628633171327e-05,1.06134672012965e-05,1.6168274427274e-05,4.33446049457032e-05
1.41767747269291e-05,8.0992227999644e-06,1.05450572408908e-05,3.28210547677843e-05
1.67147567649093e-05,1.10901145642353e-05,1.48740359803311e-05,4.26789073094758e-05
1.48874517739955e-05,6.67446720489803e-06,1.58784274383714e-05,3.74403464172649e-05
1.94547375062011e-05,1.05075112157399e-05,1.65603796514215e-05,4.65226283733625e-05
1.90860021236357e-05,1.49372498362801e-05,1.7286683170383e-05,5.13099351302988e-05
2.47477203632285e-05,1.00099839906405e-05,1.29613855750102e-05,4.77190899288792e-05
2.60838559675703e-05,1.19144098868789e-05,1.35247570716835e-05,5.15230229261327e-05
3.88628210559504e-05,2.77998838728268e-05,4.03988206086047e-05,0.000107061525537382
8.42318045450206e-06,6.35650297493331e-06,9.96152043858635e-06,2.47412038680217e-05
9.87397016560106e-06,6.28547589501318e-06,1.1275565309071e-05,2.74350113696852e-05
1.02202471262725e-05,9.68810102018923e-06,1.25744294543892e-05,3.24827776008509e-05
8.03057433502644e-06,6.89061883525341e-06,1.18056597733824e-05,2.67268529436622e-05
9.69926204255884e-06,5.8141376484682e-06,1.06680637583059e-05,2.61814634493329e-05
1.13490897862877e-05,7.07783571665539e-06,1.18481787680632e-05,3.02751042710064e-05
7.58157127529803e-06,5.36597470876588e-06,9.80452577883601e-06,2.27520717628999e-05
5.11248013368191e-06,3.87631399334313e-06,9.77537632754785e-06,1.87641704545729e-05
3.4186701415869e-06,2.74620737938101e-06,7.36984617077496e-06,1.35347236917429e-05
2.84549876516728e-06,2.76378240202334e-06,7.25029757646596e-06,1.28595787436566e-05
3.0658470763939e-06,2.76373880913646e-06,7.31016439819783e-06,1.31397502837282e-05
3.19562411974449e-06,2.7533892719175e-06,7.13713196833748e-06,1.30861453599995e-05
7.46497021010643e-06,6.11807211295895e-06,9.87618811037788e-06,2.34592304334433e-05
1.00779038894559e-05,6.02333334494001e-06,1.18725198546093e-05,2.79737570890053e-05
2.57171690409083e-05,1.63986437025174e-05,2.51195982897912e-05,6.72354110332169e-05
2.06096267237421e-05,1.28127156573028e-05,1.79677837896954e-05,5.13901261707403e-05
8.59563444610935e-06,7.15737960873697e-06,9.83095479547165e-06,2.5583968850318e-05
1.18667167604242e-05,1.0214149802172e-05,1.33249912562268e-05,3.5405857818823e-05
2.86660529403588e-06,2.78162640427448e-06,7.52876234975195e-06,1.31769940480623e-05
4.67804877793096e-06,3.41685462302499e-06,8.13616878171868e-06,1.62310721826746e-05
4.25295106140696e-06,3.25826272889379e-06,7.77177895385732e-06,1.52829927441581e-05
3.89734573029939e-06,3.41269234203898e-06,8.83698345946413e-06,1.61470215318025e-05
3.81251166173023e-06,3.05147064738801e-06,8.0679297889761e-06,1.49319120980943e-05
3.98781664670172e-06,3.30501334269423e-06,7.58812577731673e-06,1.48809557667127e-05
4.07530390272584e-06,3.71755248656317e-06,8.44037479520427e-06,1.62332311844933e-05
6.43422531089209e-06,3.23772149230009e-06,9.38229185563154e-06,1.90542386588237e-05
3.3017101219354e-06,2.80822887050293e-06,7.15551190432959e-06,1.32654508967679e-05
3.71536045825361e-06,2.79583675319843e-06,7.24415027965908e-06,1.37553474911111e-05
3.35484483051323e-06,2.56642656334546e-06,6.79168218547759e-06,1.27129535793363e-05
2.27765100626369e-05,1.77819256571459e-05,2.73114074657069e-05,6.78698431854898e-05
6.21258285347927e-06,1.73676075622932e-05,1.35496255995319e-05,3.71298160153043e-05
9.9951878694081e-06,5.647376965305e-05,2.62648511405196e-05,9.27338086629777e-05
4.44513013081161e-06,4.19968063005152e-06,9.34068430688701e-06,1.79854950677501e-05
8.42212301807758e-06,3.81181130102773e-05,1.71346537311041e-05,6.3674889759459e-05
5.23876570517645e-06,3.40083939643972e-06,8.20714001215719e-06,1.68467451137734e-05
3.13967292257693e-06,2.76069247206785e-06,7.44986943823339e-06,1.33502348328782e-05
3.26861624378576e-06,2.78884122150548e-06,7.71986742534741e-06,1.37773248906387e-05
4.80575951892846e-06,4.22123242043607e-06,9.00318265402869e-06,1.80301745933932e-05
4.88516464394803e-06,3.99663109631026e-06,8.31975142814934e-06,1.72015471684076e-05
5.78806917750196e-06,3.76316940940518e-06,9.00877314226808e-06,1.85600117291752e-05
4.32098564442737e-06,3.37143014199252e-06,7.90146253013346e-06,1.55938783165533e-05
5.59827952583062e-06,3.32362881262729e-06,8.79463021437344e-06,1.77165385528313e-05
6.35693603819022e-06,3.79848035093542e-06,8.69220356847592e-06,1.88476199576016e-05
3.53853027220848e-06,2.97015699485389e-06,7.66046009521639e-06,1.41691473622788e-05
3.82506140343733e-06,3.09638311432364e-06,7.74760560865252e-06,1.46690501264135e-05
4.24908287600191e-06,3.22648841619797e-06,8.22360462503625e-06,1.56991759172361e-05
4.12806315872359e-06,3.21359340393126e-06,7.89037530537893e-06,1.52320318680338e-05
5.88540226994227e-06,3.95377858369117e-06,8.53985607052539e-06,1.83790369241588e-05
4.53844639259802e-06,3.2159771140048e-06,7.65218386790158e-06,1.54066073745044e-05
5.1224424384046e-06,3.77440584153821e-06,8.80588098728216e-06,1.7702729267225e-05
4.52792484951112e-06,3.35668341795734e-06,8.64403086071629e-06,1.65286391281847e-05
5.21921371871564e-06,3.75371283331218e-06,8.53013795730304e-06,1.75030645093309e-05
5.34592324527005e-06,3.46871216681023e-06,8.74886720237651e-06,1.75635026144568e-05
5.47559817486304e-06,3.3228279112483e-06,8.7705339981752e-06,1.75689600842865e-05
4.05775976529475e-06,3.13407411234799e-06,7.61924239194025e-06,1.4811076269583e-05
4.72960263144621e-06,3.46879464075756e-06,8.36390349047663e-06,1.65623007626804e-05
5.28023647639931e-06,3.13127096464464e-06,8.10371380317129e-06,1.65152212442152e-05
1.03867392388265e-05,1.01185698950097e-05,1.36340983464803e-05,3.41394074803165e-05
2.88144107799375e-06,3.02867636045465e-06,7.77417541591531e-06,1.36842928543637e-05
2.85591323391047e-06,3.1966143637365e-06,8.00170443982812e-06,1.40542320374751e-05
1.23468953230466e-05,3.37822464811924e-05,2.18155654857651e-05,6.79447072900042e-05
1.10354321411184e-05,1.68486789986105e-05,1.99566453182399e-05,4.78407564579688e-05
9.62642666021449e-06,6.97866104178541e-06,9.22291134506047e-06,2.58279990470604e-05
1.32963804833964e-05,4.3844601610832e-05,1.78516205017147e-05,7.49926025959431e-05
4.89356231399939e-05,8.6231690035947e-05,8.09266959184396e-05,0.00021609400909438
5.61960559940833e-06,3.45017125334735e-06,9.21276909897005e-06,1.82825459517257e-05
5.2579504881163e-06,3.47058829773442e-06,9.40343844497163e-06,1.81319772308224e-05
5.26879177033398e-06,3.530291431839e-06,9.47951916129218e-06,1.82786023634652e-05
5.36980902001547e-06,3.83593593764002e-06,9.67402512993171e-06,1.88797700875872e-05
5.19792383118515e-06,3.23053218364862e-06,9.51308635691759e-06,1.79415423717514e-05
0.000110202516792907,6.97730530941898e-05,8.88159419900565e-05,0.000268791511877153
8.21814379212752e-06,8.42272198758102e-06,1.37768117010195e-05,3.04176774807281e-05
6.20460238432558e-06,4.55676355996551e-06,9.9723180105411e-06,2.07336839548322e-05
6.57678524190922e-06,4.91122626123414e-06,1.04910160632003e-05,2.19790275663436e-05
4.29678723385934e-06,4.20009617801324e-06,1.07361549693292e-05,1.92330383812018e-05
5.38722919739921e-06,3.65700492075433e-06,9.38972018750655e-06,1.84339543056601e-05
3.82499998098184e-06,3.53713896490192e-06,8.26198819470759e-06,1.56241271405914e-05
4.46873055296183e-06,3.38099625303967e-06,8.19950431594209e-06,1.60492311219436e-05
8.24646303699371e-06,3.08742459956071e-06,7.7360902438274e-06,1.90699778803818e-05
3.99381592972716e-06,3.38597294227079e-06,8.864155260788e-06,1.6243944132786e-05
3.82525845378058e-06,3.56072741100977e-06,8.19235733428112e-06,1.55783431990715e-05
3.70440482413326e-06,3.86633814785284e-06,8.43366555580232e-06,1.60044085277884e-05
4.3956918909075e-06,3.85483626053103e-06,8.34835367038045e-06,1.6598881821819e-05
1.59042713011104e-05,4.47894253455553e-05,1.72942005123678e-05,7.79878971590335e-05
3.23600541297705e-05,1.85364066863581e-05,3.2078458531655e-05,8.29749193477836e-05
1.36320356635365e-05,2.41706203851477e-05,2.8365261159328e-05,6.61679172080121e-05
2.25712214742145e-05,2.29250438641324e-05,2.28898520780701e-05,6.8386117416417e-05
4.05928989355313e-06,4.14308769194376e-06,9.63182947138392e-06,1.78342070568808e-05
3.26977419792782e-06,3.09584712625111e-06,8.13002119170266e-06,1.44956425158816e-05
3.13445836657139e-06,2.8950946925875e-06,8.04240006270846e-06,1.40719531218673e-05
7.56687598816551e-06,5.61830462427137e-06,1.10218271409625e-05,2.42070077533993e-05
4.24906846331672e-06,3.46513911956034e-06,8.54613569279382e-06,1.62603432756709e-05
5.63594421034335e-06,3.78211403620619e-06,8.98956178011468e-06,1.84076200266642e-05
3.84485859142351e-06,3.00351171507712e-06,8.50956499472869e-06,1.53579353012293e-05
3.26963130209809e-06,2.69801987427426e-06,7.86138427533728e-06,1.38290354517096e-05
4.77594772169171e-06,3.54850509795772e-06,8.44410263439171e-06,1.67685554540411e-05
4.57884784569064e-06,5.79942476936816e-06,9.47939802707881e-06,1.98576706421376e-05
5.5794913832826e-06,3.23691822124284e-06,8.42890035625052e-06,1.7245309960776e-05
4.78700524322036e-06,3.86530997592139e-06,8.79224333487215e-06,1.74445585540139e-05
4.61915809049788e-06,3.86932596006265e-06,8.95907316811407e-06,1.74475572186746e-05
1.33336350629862e-05,9.56970069386872e-06,1.80176184716772e-05,4.09209542285321e-05
4.89410620986859e-06,4.7515751709048e-06,9.97900507487595e-06,1.96246864556493e-05
1.51079886127736e-05,1.63948280956898e-05,2.76639511392157e-05,5.91667678476791e-05
5.44519931560052e-06,5.02723510228796e-06,8.40257487260083e-06,1.88750092904893e-05
5.41887596417786e-06,5.84552630597492e-06,1.11131051213618e-05,2.23775073915146e-05
7.32807876976528e-06,6.05902680674641e-06,1.06624930870798e-05,2.40495986635914e-05
3.50695160683019e-06,2.9898231723163e-06,8.03399995481364e-06,1.45307747339601e-05
4.15583642076275e-06,3.03762995238961e-06,8.27801581450615e-06,1.54714821876585e-05
3.31754832722579e-06,2.89699451531634e-06,7.68588613816083e-06,1.3900428980703e-05
3.6760917390561e-06,2.9638786512475e-06,8.00117119369133e-06,1.46411415839949e-05
4.97284663643366e-06,4.14251043719159e-06,1.00419761022412e-05,1.91573331758664e-05
3.63751132553989e-05,1.92438628106445e-05,2.78135767236205e-05,8.34325527896639e-05
3.19465972961699e-05,1.23853623000677e-05,2.56237264573967e-05,6.99556860536342e-05
2.8618536845693e-05,1.01642772367658e-05,2.40537173932332e-05,6.2836531475692e-05
2.83418115748713e-05,1.347754655886e-05,2.3357641746504e-05,6.51769998802353e-05
6.06595030366369e-06,4.04923174816905e-06,9.56210536878827e-06,1.9677287420621e-05
2.02003271841417e-05,1.05741318452874e-05,2.30852378830667e-05,5.38596969124957e-05
3.17237490660971e-05,1.41446343805131e-05,3.1271877711714e-05,7.71402611583243e-05
3.27191541348511e-05,1.70952613508835e-05,2.7287907504986e-05,7.71023229907206e-05
2.4979786337944e-05,1.40009921209323e-05,3.46661240972241e-05,7.36469025561004e-05
1.78812234371328e-05,1.3353828150289e-05,2.09805106437817e-05,5.22155622312035e-05
2.88450092216285e-05,1.84224814467704e-05,2.62022146536016e-05,7.34697053220005e-05
3.51295409529005e-05,1.66883854866439e-05,2.99654878608275e-05,8.17834143003719e-05
2.81576036253462e-05,1.68575160326083e-05,2.76227316597304e-05,7.26378513176849e-05
2.67319196199557e-05,1.14418713151655e-05,2.20633969103888e-05,6.023718784551e-05
2.69473155118532e-05,1.30257343358259e-05,2.80931715531717e-05,6.80662214008508e-05
6.11136360530221e-05,5.16034750562435e-05,6.36264805451447e-05,0.00017634359165441
7.22262513978403e-06,6.6020821943437e-06,1.0457875653492e-05,2.42825829876198e-05
4.21887706224286e-06,3.1074596389182e-06,7.98941772719179e-06,1.53157544283528e-05
3.19432326400797e-06,2.74690491666766e-06,7.41043380093572e-06,1.33516619816114e-05
3.40601145002227e-05,2.13211115701797e-05,2.66961288925733e-05,8.20773549629758e-05
4.88960933502408e-06,3.96624139492222e-06,8.28665493046403e-06,1.71425056604103e-05
3.27529587953357e-06,2.68761138297354e-06,6.71089025300542e-06,1.26737975155125e-05
2.70988394639407e-06,2.55615054713211e-06,6.63120941619029e-06,1.18972439097165e-05
5.50713609992144e-06,2.99075065175307e-06,8.19400131322685e-06,1.66918880649014e-05
1.82098461896822e-05,9.84544156847612e-06,1.70022952591149e-05,4.50575830172732e-05
1.54165301312047e-05,1.20676142700152e-05,1.67482290772584e-05,4.42323734784783e-05
4.88727197073185e-06,3.7196769781656e-06,8.19231312597135e-06,1.67992620748688e-05
6.77826175020051e-06,4.90708142430395e-06,9.49931230172056e-06,2.1184655476225e-05
4.68448912392668e-06,3.01784708348277e-06,8.12442055525347e-06,1.58267567626629e-05
5.36389679547715e-06,5.40183386569702e-06,9.23621973772821e-06,2.00019503989024e-05
4.84283077363307e-06,3.27790798841323e-06,8.44835681857783e-06,1.65690955806241e-05
1.14652509997216e-05,8.78711266128337e-06,1.16585493391737e-05,3.19109130001786e-05
4.81127050870204e-06,3.18231633968584e-06,8.124376999969e-06,1.61179638483569e-05
8.61423329615366e-06,4.1121635445128e-06,1.00540910597409e-05,2.27804879004073e-05
9.07440200626766e-06,5.44778075611197e-06,1.27127105474191e-05,2.72348933097987e-05
4.66067843286375e-06,3.94560795311306e-06,8.47234570183074e-06,1.70786320878075e-05
3.54423416548611e-06,3.10837825648257e-06,8.11254995697108e-06,1.47651623789398e-05
4.70160064294002e-06,3.55027173095806e-06,8.38704524309293e-06,1.6638917616991e-05
6.41506342204079e-06,6.31991491018465e-06,1.06495646681507e-05,2.33845430003761e-05
1.10837190034079e-05,1.01237343384128e-05,1.57241850318805e-05,3.69316383737011e-05
6.21355979418431e-06,9.25424985307124e-06,1.0364591142133e-05,2.58324007893885e-05
4.42802540562375e-06,3.84081948000672e-06,8.3182374581418e-06,1.65870823437723e-05
5.25168266560831e-06,4.4235836919659e-06,9.20874974816648e-06,1.88840161057407e-05
4.44636148162255e-06,3.31057402019145e-06,8.34002362338072e-06,1.60969591251947e-05
3.48464665918898e-06,3.30582574248559e-06,8.13986042400063e-06,1.49303328256752e-05
3.724826881117e-06,3.21731317880747e-06,7.69583386044479e-06,1.46379739203693e-05
3.99818869197599e-06,3.10132446309935e-06,8.03128560531994e-06,1.51307987603953e-05
4.03949725543355e-06,3.5772150432112e-06,8.32635010773425e-06,1.5943062406379e-05
4.09835191246101e-06,3.58966611529528e-06,8.71717325582036e-06,1.64051912835767e-05
3.70787521758359e-06,2.91080970493621e-06,7.58703252075691e-06,1.42057174432767e-05
6.91847766757237e-06,4.88773559145793e-06,9.02153079740527e-06,2.08277440564356e-05
1.79535372670434e-05,4.4270877050137e-06,9.00605927940436e-06,3.13866842514614e-05
8.06465529456818e-06,5.29863837387702e-06,1.21443335683539e-05,2.55076272367991e-05
3.15355983404624e-06,2.82545075775786e-06,7.53736366156765e-06,1.35163742533718e-05
4.90806309342878e-06,3.52332060549538e-06,9.0306247743953e-06,1.74620084733195e-05
3.99158661465683e-06,3.15750933675695e-06,7.8112994459277e-06,1.49603953973415e-05
3.30203927867663e-06,2.84067959432421e-06,8.04694092603156e-06,1.41896597990324e-05
4.54528196394207e-06,3.61269147667464e-06,8.67557055079207e-06,1.68335439914088e-05
4.03285311790006e-06,3.13670555758319e-06,8.26977772771978e-06,1.5439336403203e-05
9.4269821905531e-06,9.60898833236695e-06,1.26146372318652e-05,3.16506077547852e-05
5.32477088551492e-06,6.1170199165947e-06,1.05275011815882e-05,2.19692919836978e-05
5.80322614775041e-06,4.87249181909324e-06,1.01251078350463e-05,2.080082580189e-05
1.02569391875858e-05,1.11095683182388e-05,1.58969087873763e-05,3.72634162932008e-05
8.69644290466581e-06,6.22826683927117e-06,9.65007171866828e-06,2.45747814626053e-05
4.30427476730241e-06,4.02774305514588e-06,8.71075884258191e-06,1.70427766650302e-05
3.76787367195559e-06,3.423348996584e-06,8.64708759246555e-06,1.58383102610051e-05
3.26198853765482e-06,3.10986045682457e-06,7.59422814741889e-06,1.39660771418983e-05
8.56391640020845e-06,3.60772203912013e-06,1.01764985867408e-05,2.23481370260694e-05
4.54510536495015e-06,3.37728774423033e-06,8.1878712938503e-06,1.61102644030308e-05
7.77637663697009e-06,6.74299889114388e-06,1.22462922234026e-05,2.67656677515166e-05
8.54506125485929e-06,7.73139376530024e-06,1.14806722770684e-05,2.7757127297228e-05
3.58310549919096e-06,3.52842658115792e-06,7.93747432270189e-06,1.50490064030508e-05
4.34366546764022e-06,3.87684026649475e-06,8.98584642904017e-06,1.72063521631751e-05
6.88742157908695e-06,5.24525222817158e-06,1.1211255815246e-05,2.33439296225045e-05
4.77960220837536e-06,3.68070898097686e-06,8.29522996750876e-06,1.6755541156861e-05
4.09300196235085e-06,3.18819246151347e-06,8.01635839541095e-06,1.52975528192753e-05
4.39622178113147e-06,2.84707370224374e-06,7.45115928918611e-06,1.46944547725613e-05
3.96296960257186e-06,3.15717191529074e-06,8.12206591791953e-06,1.52422074357821e-05
3.66102290180544e-06,2.94301036270122e-06,7.41462174730713e-06,1.40186550118138e-05
4.43635876805134e-06,4.33283854992639e-06,8.16614061871116e-06,1.69353379366889e-05
4.84589542108705e-06,4.02871859098135e-06,7.85977725844076e-06,1.67343912705092e-05
3.90629343593926e-06,3.79095973001432e-06,7.61186039664587e-06,1.53091135625995e-05
4.1416609640815e-06,3.6882434871151e-06,8.80532855784952e-06,1.66352330090461e-05
3.53634587517611e-06,2.81595323205776e-06,8.13607417893997e-06,1.44883732861738e-05
5.66299735844962e-06,5.61586437324494e-06,1.06403381633294e-05,2.1919199895024e-05
8.30058443495151e-06,7.87828827820643e-06,1.29487525414738e-05,2.91276252546317e-05
4.70374274071041e-06,3.71795168576948e-06,8.43752468111423e-06,1.68592191075941e-05
3.74250811878148e-06,3.39110340878753e-06,8.58485626008851e-06,1.57184677876575e-05
5.53938153491287e-06,3.22299782933847e-06,8.57494403149733e-06,1.73373233957487e-05
3.664660654044e-06,3.19598812536585e-06,7.90613880169007e-06,1.47667875810999e-05
3.50175615906335e-06,2.89717239377974e-06,7.9378420800395e-06,1.43367706328826e-05
3.82859114310679e-06,3.8390988728158e-06,8.42584343618177e-06,1.60935334521044e-05
3.8622936876534e-06,3.04042136272517e-06,7.95544728537136e-06,1.48581623357499e-05
3.47962226063477e-06,3.37506302641806e-06,8.04726732125381e-06,1.49019526083066e-05
3.4887569659072e-06,2.96997624932066e-06,7.65316803104415e-06,1.4111901246272e-05
4.98678682138741e-06,3.32135624041521e-06,8.79877384940348e-06,1.71069169112061e-05
4.3645787915897e-06,3.01765660177949e-06,8.33617412910867e-06,1.57184095224779e-05
5.39148841446752e-06,6.13980242749909e-06,1.04701735076322e-05,2.20014643495989e-05
4.07365128229637e-06,4.98515130960203e-06,8.46164960237909e-06,1.75204521942775e-05
3.96969714614968e-06,4.12106181960905e-06,7.76437476365023e-06,1.5855133729409e-05
9.72158948981385e-06,9.53205966100003e-06,1.42507310843298e-05,3.35043802351437e-05
1.75572715266663e-05,9.47469947573312e-06,1.94023349949509e-05,4.64343059973503e-05
1.14227176939927e-05,8.20724697010677e-06,1.68069942937391e-05,3.64369589578386e-05
8.84056805122539e-06,6.51563670503928e-06,1.79147871723979e-05,3.32709919286625e-05
1.51533422820518e-05,1.11893477480011e-05,1.93332975626348e-05,4.56759875926876e-05
4.75546865335101e-06,4.66275195887988e-06,8.9043243620416e-06,1.83225449742725e-05
7.3399300508708e-06,6.28801978503058e-06,1.08148763325714e-05,2.44428261684728e-05
6.59623724340603e-06,6.41235723505962e-06,1.13954635770431e-05,2.44040580555088e-05
6.19147147117166e-06,4.86660464357831e-06,1.00972788431404e-05,2.11553549578904e-05
7.12845729316336e-06,8.95117435720549e-06,1.31641703175406e-05,2.92438019679094e-05
3.46775459406911e-06,2.93584899433783e-06,8.1250883654557e-06,1.45286919538626e-05
8.51424593797057e-06,8.81230038053927e-06,1.12271193326089e-05,2.85536656511188e-05
8.71616877331955e-06,7.13462454180923e-06,9.92280368066304e-06,2.57735969957918e-05
4.86281524454254e-06,3.5164754678696e-06,8.02958116245298e-06,1.64088718748651e-05
4.2296397768866e-06,2.97906874514582e-06,7.98304388935056e-06,1.5191752411383e-05
3.83337730523828e-06,2.87758553978264e-06,7.83756551797654e-06,1.45485283629975e-05
5.16292387586965e-06,3.32496366787897e-06,8.8870530919143e-06,1.73749406356629e-05
4.96268851908655e-06,3.11688739339965e-06,8.20916448853923e-06,1.62887404010254e-05
4.54625376772804e-06,3.38885317043719e-06,8.54423126299151e-06,1.64793382011567e-05
4.40862936040703e-06,3.15008472735146e-06,8.47785997367287e-06,1.60365740614314e-05
4.61882411421635e-06,3.42087238269062e-06,8.57592723733614e-06,1.66156237342431e-05
6.26852620985943e-06,6.8563303686763e-06,1.06498404492055e-05,2.37746970277413e-05
4.73263699645294e-06,3.13547363088019e-06,8.70799273710982e-06,1.6576103364443e-05
4.66095266708917e-06,3.17788176089098e-06,8.34691721628672e-06,1.61857516442669e-05
4.57603399361637e-06,3.186293403381e-06,7.91896009232046e-06,1.56812874893178e-05
5.2219471653579e-06,3.10991716621543e-06,8.2303976336146e-06,1.65622619651879e-05
9.36762845512304e-06,1.07374292918459e-05,1.15011172975048e-05,3.16061750444737e-05
5.11711760350323e-06,4.31417968546318e-06,9.37299543247275e-06,1.88042927214392e-05
4.92196055456628e-06,2.9721121995276e-06,8.22953132298777e-06,1.61236040770817e-05
4.23014332046019e-06,2.90607618629177e-06,7.90913345326552e-06,1.50453529600175e-05
4.66239684743017e-06,3.06637168983688e-06,7.76067930920484e-06,1.54894478464719e-05
5.57213867162774e-06,4.12999939931146e-06,9.2191534195241e-06,1.89212914904633e-05
3.93347031918784e-06,2.89849152107372e-06,7.48209542701109e-06,1.43140572672726e-05
5.80287439054438e-06,5.8771746328275e-06,1.02362554721206e-05,2.19163044954925e-05
5.4700001651619e-06,8.6019284259464e-06,1.08938514359558e-05,2.49657800270641e-05
3.72289622892326e-06,2.91756492610832e-06,7.77992983835021e-06,1.44203909933818e-05
3.84782501393023e-06,3.34097690050952e-06,7.53553213845895e-06,1.47243340528987e-05
1.67927648718251e-05,2.41426003891908e-05,2.89235254582594e-05,6.98588907192753e-05
5.90094065439508e-06,5.46572703612142e-06,1.05464233641344e-05,2.19130910546509e-05
3.91007264044919e-06,3.07747734284497e-06,8.1166627309823e-06,1.51042127142765e-05
3.55819402318127e-06,3.06677385893979e-06,8.59873599159126e-06,1.52237038737123e-05
3.60979719905362e-06,3.08836408717051e-06,9.01584303407715e-06,1.57140043203013e-05
3.568228267533e-06,2.861730345919e-06,8.9039129199481e-06,1.53338715334001e-05
5.82486961727749e-06,5.73414741743712e-06,9.92967536299277e-06,2.14886923977074e-05
4.06997169021189e-06,3.29390046192104e-06,8.96598846414716e-06,1.63298606162801e-05
5.28863916213269e-06,3.57220196334336e-06,9.71481040672914e-06,1.85756515322052e-05
5.04720114517615e-06,4.32432485583927e-06,1.0000529681149e-05,1.93720556821644e-05
4.29767512465067e-06,3.80062205031884e-06,9.58955030469445e-06,1.7687847479664e-05
3.5419673056793e-06,2.95362732012257e-06,8.51191714091712e-06,1.5007511766719e-05
5.08741197175249e-06,3.39247104861104e-06,9.33882657730782e-06,1.78187095976714e-05
4.4744151317642e-06,3.66388220039393e-06,9.18129540669682e-06,1.73195927388549e-05
4.28768002804448e-06,3.47052108835715e-06,1.02463313709964e-05,1.80045324873981e-05
3.83408674552536e-06,3.16940514962088e-06,9.7692903205123e-06,1.67727822156585e-05
5.10198025133105e-06,3.73161946621508e-06,1.04246510182368e-05,1.9258250735783e-05
4.80797012527701e-06,6.58211015762477e-06,1.08391036882718e-05,2.22291839711736e-05
5.83469823564017e-06,4.08969263225825e-06,9.96317258590953e-06,1.98875634538079e-05
8.00339803094534e-06,7.99500741711341e-06,1.48046019466817e-05,3.08030073947404e-05
5.66597898411579e-06,4.4696197686999e-06,1.10029269624033e-05,2.1138525715219e-05
5.03408392664198e-06,3.34332253366217e-06,9.16564017879361e-06,1.75430466390978e-05
4.23584761994245e-06,3.14222345517692e-06,9.02154832027422e-06,1.63996193953936e-05
7.7398059056596e-06,6.08728543219173e-06,1.26185829060937e-05,2.64456742439451e-05
4.91533421633888e-06,3.50379665703861e-06,1.0446702848409e-05,1.88658337217865e-05
6.30296938246035e-06,3.50084325977844e-06,1.13609559035814e-05,2.11647685458202e-05
6.67627590739264e-06,4.34445520789236e-06,1.19220973020333e-05,2.29428284173183e-05
6.07279578500775e-06,4.2164020158857e-06,1.38078794975347e-05,2.40970772984282e-05
5.62897570284817e-06,3.40241134230087e-06,1.20958908844775e-05,2.11272779296266e-05
6.38355064783723e-06,3.80138778858219e-06,1.07475235707967e-05,2.09324620072161e-05
3.72101275389187e-06,2.99563617525195e-06,8.65795862571274e-06,1.53746075548566e-05
4.48583406280894e-06,3.38731310028324e-06,9.65383950118049e-06,1.75269866642727e-05
4.41249165034578e-06,3.56228367720132e-06,8.7510402095201e-06,1.67258155370672e-05
6.24395889189209e-06,4.38641592882967e-06,1.08562768833205e-05,2.14866517040423e-05
7.45993010192555e-06,7.7641597791128e-06,1.27291510516448e-05,2.79532409326831e-05
2.93683180965397e-06,2.72371206960644e-06,7.49294139329872e-06,1.31534852725591e-05
5.14939735092626e-06,4.4631553643577e-06,9.80921415871936e-06,1.94217668740033e-05
5.90284492738308e-06,5.73290581939134e-06,1.03112771830829e-05,2.19470279298573e-05
5.55922778181061e-06,5.47603805887694e-06,1.00023880358198e-05,2.10376538765073e-05
4.85670944651493e-06,4.63045329649566e-06,9.16965769509808e-06,1.86568204381087e-05
5.25609790641536e-06,5.02903273824184e-06,1.0423983908277e-05,2.07091145529342e-05
6.70170771914789e-06,6.62660749431485e-06,1.11731361783683e-05,2.45014513918311e-05
4.14599269309479e-06,3.73524940991339e-06,8.93128261124917e-06,1.68125247142574e-05
5.93411419672366e-06,6.517940966042e-06,1.01872172958129e-05,2.26392724585786e-05
4.22461355061244e-06,3.39707274698487e-06,8.60900027933352e-06,1.62306865769308e-05
4.23519389161714e-06,3.24198529360266e-06,8.49055743583211e-06,1.59677366210519e-05
4.19063697713457e-06,3.37376403752328e-06,8.52593737265155e-06,1.60903383873094e-05
4.34456921888547e-06,3.4446815158785e-06,9.77187683641947e-06,1.75611275711834e-05
4.25510835323235e-06,3.59853448713554e-06,8.62247361481268e-06,1.64761164551806e-05
4.43065241485632e-06,3.66029124756441e-06,8.44638515651436e-06,1.65373288189351e-05
3.71737294466219e-06,3.02233570319587e-06,8.59421880974556e-06,1.53339274576036e-05
3.44869431938628e-06,2.89739263136869e-06,7.44801376855875e-06,1.37941007193137e-05
3.41815938966614e-06,2.83232526882228e-06,7.32414332771493e-06,1.35746279862033e-05
4.3445468348103e-06,3.5611417345306e-06,8.47131535936076e-06,1.63770039287017e-05
4.59206670227515e-06,3.28386076068218e-06,8.40211742104202e-06,1.62780448839994e-05
4.23850918204845e-06,3.20878576268339e-06,8.53465458732571e-06,1.59819495320575e-05
4.15463152764565e-06,3.18374808670386e-06,8.4337887463048e-06,1.57721683606543e-05
7.15484006149275e-06,1.49539249559541e-05,1.6495901084315e-05,3.86046661017618e-05
3.87890868562839e-06,2.84878990544707e-06,7.31741156044193e-06,1.40451101515174e-05
3.48743287863862e-06,2.85625511045659e-06,7.56546432158398e-06,1.39091523106792e-05
4.11195733334635e-06,3.04159207101058e-06,7.91207291772109e-06,1.5065622322078e-05
4.55882021226534e-06,3.41036473221848e-06,8.6951866907093e-06,1.66643716351931e-05
3.69347748993957e-06,2.84091995709129e-06,7.56392537447751e-06,1.40983228215084e-05
4.36252601501873e-06,3.3395977336508e-06,8.44007562379016e-06,1.61421993724597e-05
4.39472866052935e-06,2.89381418546477e-06,7.73294568456401e-06,1.50214885305581e-05
4.46821136255945e-06,3.40379127453821e-06,8.68320754943868e-06,1.65552101865363e-05
4.88407946412987e-06,3.2997954816605e-06,8.55561597790863e-06,1.6739490923699e-05
4.70702376835584e-06,3.69603009074641e-06,9.0950080177304e-06,1.74980618768327e-05
3.95014317129984e-06,3.03063822583859e-06,8.24699607890802e-06,1.52277774760464e-05
4.698002676972e-06,3.67406715996245e-06,9.22689221370123e-06,1.75989620506357e-05
5.90583451306127e-06,7.72719963554712e-06,1.05123967797801e-05,2.41454309283885e-05
4.17408462319036e-06,2.83794243868234e-06,7.6382591039949e-06,1.46502861658676e-05
3.10249032083753e-06,2.59301500850092e-06,7.05146800108295e-06,1.27469733304214e-05
3.01210773543831e-06,2.49445104588719e-06,7.02640944529647e-06,1.2532968226622e-05
5.32354524436905e-06,5.40681363236105e-06,1.00587413401955e-05,2.07891002169256e-05
1.38580409645086e-05,1.30285038449455e-05,1.57808927858067e-05,4.26674375952607e-05
1.91961941558159e-05,1.68467168062584e-05,2.42622950541765e-05,6.03052060162508e-05
1.86028173154832e-05,1.2465900210416e-05,2.02659547188984e-05,5.13346722447975e-05
3.30617618196843e-05,3.77184078313913e-05,5.36766005249598e-05,0.000124456770176035
1.79328045163055e-05,3.43533595859083e-05,2.64648521766248e-05,7.87510162788386e-05
0.000100950035243372,8.32578820934064e-05,9.84057365119872e-05,0.000282613653848766
5.66108421658695e-05,3.6155331948216e-05,4.86739452642131e-05,0.000141440119378299
2.67605162813784e-05,6.8233908093404e-06,2.01394493674402e-05,5.3723356458159e-05
7.89193387966431e-06,9.43278141078698e-06,1.81731388400416e-05,3.54978541304929e-05
3.68477919617703e-05,5.53813637785764e-05,3.70996624211777e-05,0.000129328818161524
3.25001476608955e-06,3.86650599993315e-06,7.71649395482641e-06,1.48330147208491e-05
1.66613963367208e-05,1.4177452601692e-05,1.83179745422545e-05,4.91568234806672e-05
8.64267999050263e-06,3.32073772047283e-06,9.13985713598798e-06,2.11032748469634e-05
6.78418243379631e-06,3.79801409679816e-06,1.02528461024569e-05,2.08350426330514e-05
2.15008295563716e-05,3.75294921972939e-05,2.65580996297685e-05,8.5588421383434e-05
3.88071834736173e-05,2.79244836499569e-05,2.94300829585119e-05,9.61617500820861e-05
2.11674330592792e-05,1.14739063536868e-05,2.79740045524277e-05,6.06153439653937e-05
3.60171247424491e-05,2.02038709324736e-05,3.80816718651782e-05,9.43026675401009e-05
3.27725703725646e-05,4.69269059247848e-05,2.60934519409292e-05,0.000105792928238279
1.03499345361716e-05,1.12911194172944e-05,1.20869279776224e-05,3.37279819310883e-05
5.24534056024566e-06,5.45564164399575e-06,9.33232933353574e-06,2.00333115377772e-05
1.04831286741191e-05,1.69342293276834e-05,1.23905798790901e-05,3.98079378808925e-05
8.55085903631908e-06,1.24304859292558e-05,1.14345680430147e-05,3.24159130085896e-05
1.73786953173433e-05,2.88871924299816e-05,1.70592181819438e-05,6.33251059292686e-05
1.26651482469702e-05,4.28465127429864e-06,1.09861844502474e-05,2.79359839715162e-05
8.54184632935313e-06,3.71303134294618e-06,9.24275252511672e-06,2.1497630197416e-05
2.23799206069282e-05,3.00137192754875e-05,3.1073898461418e-05,8.34675383438337e-05
1.57430923262355e-05,2.11799121012315e-05,1.20677216194404e-05,4.89907260469074e-05
2.15232158769491e-05,2.96030796182976e-05,3.67697272564761e-05,8.78960227517228e-05
1.1874616354225e-05,3.9556601890425e-06,9.3787650781728e-06,2.52090416214403e-05
0.000103098565912867,0.000266813383362886,0.000320944502998437,0.000690856452274189
9.82532035505754e-06,7.34879973503744e-06,1.8586000060197e-05,3.5760120150292e-05
2.74070017810605e-05,2.17760666211638e-05,2.89154260823547e-05,7.80984944845791e-05
1.17217094846883e-05,1.08187804471594e-05,1.35665631058415e-05,3.61070530376891e-05
3.41841941740952e-05,4.57766640214248e-05,2.06387054078295e-05,0.00010059956360335
3.99617349901595e-05,6.87826039197081e-05,5.78745931230635e-05,0.000166618932032931
1.03304737107334e-05,6.21796710292412e-06,1.35809532774246e-05,3.01293940910822e-05
8.9794769245711e-06,4.96219293391645e-06,1.1448372295006e-05,2.53900421534936e-05
6.397850137101e-06,3.95375725213114e-06,9.84969465629858e-06,2.02013020455307e-05
2.91503789466586e-05,4.29433009558305e-05,2.29246592176871e-05,9.50183391201762e-05
8.0000814964133e-06,1.29127752666136e-05,1.19853163390169e-05,3.28981731020438e-05
3.88331133076992e-06,3.29476501066377e-06,9.57796158796588e-06,1.67560379293996e-05
1.91287331144039e-05,3.89369674437619e-05,5.6275750189186e-05,0.000114341450747352
1.49663536914852e-05,1.06794244110405e-05,1.39031825728554e-05,3.95489606753811e-05
7.56608838937333e-06,4.41517909012445e-06,1.09991275417805e-05,2.29803950212783e-05
4.12877451686171e-06,3.22921441026569e-06,9.14722543952109e-06,1.65052143666485e-05
1.13758500786129e-05,4.46348732625226e-06,1.04025156654496e-05,2.62418530703148e-05
3.7133364365895e-05,4.75737424072703e-05,1.71695480813732e-05,0.000101876654854538
2.88773962728647e-05,2.98128121055894e-05,1.57496936351663e-05,7.44399020136205e-05
8.00647943483688e-06,3.8599945827961e-06,9.47680254464298e-06,2.1343276562276e-05
2.33081085950687e-05,3.00871480366274e-05,1.66654917726803e-05,7.00607484043764e-05
9.52857836559789e-06,4.89122499540037e-06,9.97789468963686e-06,2.43976980506351e-05
4.30726051831475e-06,3.66425955447976e-06,8.03796332956863e-06,1.60094834023631e-05
1.54018074381831e-05,1.20707805345722e-05,1.24694239418793e-05,3.99420119146346e-05
7.60867702535958e-06,3.7907775864275e-06,9.47723898641497e-06,2.08766935982021e-05
5.00076771717395e-05,6.20695695536286e-05,2.31568052366041e-05,0.000135234051961972
3.7228819363583e-05,5.95051357962323e-05,2.00052157113324e-05,0.000116739170871148
9.23370704992374e-06,1.09493427311958e-05,1.17924945988449e-05,3.19755443799644e-05
3.00996050038223e-06,2.775892882173e-06,7.3957565038796e-06,1.31816098864348e-05
1.82876934604184e-05,5.53230304546358e-06,1.06988421254995e-05,3.45188386313815e-05
7.33635508363303e-06,6.79035960244728e-06,1.10809711189095e-05,2.52076858049898e-05
1.27266448789245e-05,1.19117525573423e-05,1.45954032913072e-05,3.92338007275739e-05
2.89084459185083e-05,4.35811552308701e-05,1.96080706173746e-05,9.2097671766753e-05
1.54217656139566e-05,1.73065348756121e-05,1.45465211241373e-05,4.72748216137061e-05
2.18422476865306e-05,2.12546788886441e-05,1.9076371695901e-05,6.21732982710757e-05
1.64295484975383e-05,5.26671604972178e-06,1.27504696780377e-05,3.44467342252977e-05
3.47614300932938e-06,2.81622782895893e-06,7.66558458298622e-06,1.39579554212745e-05
8.56303900972397e-06,6.41209990219281e-06,1.76074346636578e-05,3.25825735755746e-05
1.95431611593615e-05,7.09087845905846e-06,1.6794514742662e-05,4.34285543610819e-05
1.01308674435682e-05,3.57418911601955e-06,9.28735482111748e-06,2.29924113807053e-05
4.2898176231583e-06,3.61938860756328e-06,8.98525113611323e-06,1.68944573668348e-05
1.2453249464019e-05,1.02622261963696e-05,1.17090133698586e-05,3.44244890302471e-05
2.29413273086497e-05,1.88911392152718e-05,1.74116592453873e-05,5.92441257693088e-05
1.2962695646219e-05,6.61659327262419e-06,1.31013852840964e-05,3.26806742029395e-05
8.13084305588772e-06,3.45518988588221e-06,8.92952654156828e-06,2.05155594833382e-05
1.00000884052079e-05,4.94871003934324e-06,1.00812336093088e-05,2.50300320538599e-05
5.69382004638525e-06,3.26197040208234e-06,7.95009656396348e-06,1.69058870124311e-05
4.78866879342957e-06,3.11582568041964e-06,7.1979595886709e-06,1.51024540625201e-05
5.47088264833406e-06,3.42477973845091e-06,7.78922347210365e-06,1.66848858588886e-05
3.4818133285864e-06,3.42091175535017e-06,8.66813564404197e-06,1.55708607279785e-05
7.40717326032901e-06,4.18807290158031e-06,9.43230487336189e-06,2.10275510352712e-05
6.11469993028662e-06,4.25011615741607e-06,9.01472399863356e-06,1.93795400863363e-05
7.72534253308913e-06,3.40274351295356e-06,8.47209765900917e-06,1.96001837050519e-05
5.888693018896e-06,3.31637067588482e-06,7.67349085037323e-06,1.6878554545154e-05
9.00101524366607e-06,6.38442141578403e-06,9.18229384285562e-06,2.45677305023057e-05
1.03281660243195e-05,5.30266542378041e-06,1.22667305844693e-05,2.78975620325692e-05
9.52253970997781e-06,4.41828804040912e-06,9.31737481730199e-06,2.32582025676889e-05
6.32423539703731e-06,3.73685512088888e-06,8.34274990403967e-06,1.84038404219659e-05
7.69255103710351e-06,7.3032777344827e-06,9.4713060622152e-06,2.44671348338014e-05
1.26527711106279e-05,4.66894704534575e-06,1.08167376260254e-05,2.81384557819991e-05
4.91727461507911e-06,2.97573737071654e-06,7.59640467515039e-06,1.5489416660946e-05
2.9114231316049e-06,2.74144245208151e-06,7.40809163172189e-06,1.30609572154083e-05
5.8818987249968e-06,3.22285456480502e-06,8.35971854088356e-06,1.74644718306854e-05
8.33442594292722e-06,3.14738342181232e-06,8.01098816032077e-06,1.94927975250603e-05
6.57223534791242e-06,3.05336985309159e-06,7.9610829747389e-06,1.75866881757429e-05
1.4532128276362e-05,1.19737115712899e-05,2.31298454506801e-05,4.9635685298332e-05
4.60301727738467e-05,3.27162102181483e-05,4.8353190842854e-05,0.000127099573834849
2.94867941274895e-06,2.81718693959314e-06,7.36555365943509e-06,1.31314200117772e-05
2.79648063510631e-06,2.64958472825798e-06,7.3551442761151e-06,1.28012096394794e-05
2.84512156470414e-06,2.59114844889757e-06,7.0338694704832e-06,1.24701394840849e-05
2.91065010861641e-06,2.68435756586964e-06,7.1698498205263e-06,1.27648574950124e-05
3.09716479956824e-06,2.67859368520361e-06,6.97566293379001e-06,1.27514214185619e-05
3.33399368759948e-06,2.68097239307393e-06,7.69058314698372e-06,1.37055492276571e-05
5.43085793222827e-06,5.06791665334379e-06,9.86550206449672e-06,2.03642766500688e-05
7.67216939441064e-06,5.6415324630351e-06,9.97035918851781e-06,2.32840610459635e-05
3.11879179342083e-06,2.47954612812621e-06,7.048763954902e-06,1.2647101876449e-05
2.72046359300304e-06,2.49281590267849e-06,6.79519442261696e-06,1.20084739182985e-05
2.89622661712628e-06,2.57748216395441e-06,6.80712292346176e-06,1.22808317045424e-05
2.80009697229708e-06,2.64827306473844e-06,6.93371445968921e-06,1.23820844967247e-05
0.000102538176135639,6.62795569309444e-05,6.17789109606088e-05,0.000230596644027192
3.35529484720111e-06,3.52529773068299e-06,8.66654151456673e-06,1.55471340924508e-05
3.00715287128884e-06,2.83110572801874e-06,7.50492880988124e-06,1.33431874091888e-05
3.12504518495471e-06,2.93432652381905e-06,8.34654643684866e-06,1.44059181456224e-05
2.85218342176351e-06,2.78496543487074e-06,7.52464726501638e-06,1.31617961216506e-05
3.39811753005764e-06,3.77421075033781e-06,8.34920067037668e-06,1.55215289507721e-05
3.38638293758166e-06,3.17148445596644e-06,8.20010511076518e-06,1.47579725043133e-05
2.93046659828448e-06,2.91340855953613e-06,7.59581783677647e-06,1.34396929945971e-05
2.98116569017898e-06,2.64936870636657e-06,7.68572838669458e-06,1.33162627832401e-05
2.99689327146793e-06,2.74804477865475e-06,7.69880989290423e-06,1.34437479430269e-05
1.75492169919293e-05,2.12888644309478e-05,2.10359114506157e-05,5.98739928734928e-05
2.10554484500605e-05,2.61143656395354e-05,2.86106219465348e-05,7.57804360361307e-05
1.47077332202393e-05,1.11486447240162e-05,1.9688212631303e-05,4.55445905755585e-05
6.79705509353584e-06,5.80746951618731e-06,9.76380405148925e-06,2.23683286612124e-05
6.27409956084472e-06,3.4294775047458e-06,8.20449010025378e-06,1.79080671658443e-05
2.75272743783138e-06,2.62601156655003e-06,6.70627950884541e-06,1.20850185132268e-05
2.76834724887011e-06,2.60689220666038e-06,6.79497220340143e-06,1.21702116589319e-05
2.71486950388182e-06,2.61091394630138e-06,6.65889828823247e-06,1.19846817384157e-05
3.24468180368246e-06,2.69927987885863e-06,6.82892914107971e-06,1.27728908236208e-05
1.2942497320224e-05,1.17333918383044e-05,1.25828491900625e-05,3.72587383485908e-05
6.8546425593342e-06,5.24658889324139e-06,1.00884427339554e-05,2.2189674186531e-05
4.22240504022245e-06,2.90462053653656e-06,8.04511951009869e-06,1.51721450868577e-05
6.18008261110762e-06,5.40964081384104e-06,1.02483458303885e-05,2.18380692553372e-05
3.46639487868709e-06,2.90913171500127e-06,8.02596627474864e-06,1.4401492868437e-05
1.17594965545234e-05,6.18952518774511e-06,1.26893228780598e-05,3.06383446203283e-05
0.000279818752679278,0.000311162482496852,0.000166301934917442,0.000757283170093571
0.000208299574010454,0.00044589037612349,0.000506407559682067,0.00116059750981601
0.000284223637872824,0.00101100263302582,0.00111343926755887,0.00240866553845751
5.17040032456967e-05,9.00662901412508e-05,0.000112022897094838,0.000253793190481786
0.000398455259709731,0.0012592226544168,0.000972610044786549,0.00263028795891308
0.000139306972709115,0.000485657124847608,0.000300717070052125,0.000925681167608848
0.000200556058387783,0.000289815385945784,0.000233120868802107,0.000723492313135674
0.00013612712377862,0.000308472929166715,0.000277735004798235,0.00072233505774357
0.000631513284563029,0.00196826018210425,0.00181918194567646,0.00441895541234374
0.000440652768455381,0.00116348428590525,0.00139270538107877,0.0029968424354394
0.000288273226460936,0.000585311817596635,0.000652265777774071,0.00152585082183164
0.000625761290787301,0.0015621020903742,0.00225984913143047,0.00444771251259197
0.000838905019831507,0.00208286885913297,0.00205185263693942,0.0049736265159039
0.000127998871656415,0.000239972306207461,0.000320147019226271,0.000688118197090148
0.00036224870115163,0.000725178341010328,0.000951091938631997,0.00203851898079395
1.7840071854204e-05,1.44783098565646e-05,2.48228412977059e-05,5.71412230084745e-05
4.63839406305948e-06,4.40643174421911e-06,1.21992878316854e-05,2.1244113638964e-05
3.64777938423393e-06,3.347471656512e-06,9.59106777150298e-06,1.65863188122489e-05
7.43950021791251e-06,6.17782442415346e-06,1.55493124355245e-05,2.91666370775905e-05
4.34377804890007e-06,3.57974815714645e-06,1.04942049086433e-05,1.84177311146898e-05
2.53238789019102e-05,2.14582935578884e-05,2.31459252115688e-05,6.99280976713675e-05
1.01535260532235e-05,9.54418692848938e-06,1.78501968692347e-05,3.75479098509475e-05
9.83175849702374e-06,9.27675620596909e-06,1.54429104467003e-05,3.45514251496931e-05
1.27218139586199e-05,9.19522642700966e-06,1.68147427188243e-05,3.87317831044539e-05
9.49407060309927e-06,7.87981324735592e-06,1.46145369762984e-05,3.19884208267536e-05
1.35581550935415e-05,8.90704306633449e-06,1.95886418462239e-05,4.20538400060999e-05
4.52715623231441e-05,3.0148028437283e-05,4.11062968014271e-05,0.000116525887561854
1.04223746212098e-05,7.98921390660738e-06,1.45378331804607e-05,3.29494217082778e-05
1.11816946936414e-05,6.97876130737703e-06,1.3816190835417e-05,3.19766468364354e-05
9.20943925527743e-06,9.16002837006509e-06,1.36284522152006e-05,3.19979198405431e-05
3.13098588109693e-06,3.33087385268092e-06,9.14217478780039e-06,1.56040345215782e-05
3.33496764553581e-06,2.90806613568822e-06,8.19581084617925e-06,1.44388446274033e-05
2.98594290250117e-06,2.68220864914284e-06,7.64881625147184e-06,1.33169678031159e-05
3.04459107515176e-06,2.94968502086708e-06,8.29731113407276e-06,1.42915872300916e-05
3.96006455978309e-06,7.83018539423388e-06,1.09511263023439e-05,2.27413762563608e-05
2.93567428167156e-06,2.61309423971765e-06,7.97450969237906e-06,1.35232782137683e-05
2.82621840553967e-06,2.68101756148466e-06,7.36183185661563e-06,1.286906782364e-05
3.83886599163016e-06,3.47943938969345e-06,9.1114097563316e-06,1.64297151376552e-05
3.13741412622016e-06,3.03823112540696e-06,8.65036283769878e-06,1.48260080893259e-05
3.15508511273399e-06,2.8067052651198e-06,7.92783472157193e-06,1.38896250994257e-05
3.29036900180839e-06,3.16099848550964e-06,7.72027177584967e-06,1.41716392631677e-05
3.05464243339961e-06,3.12416997771978e-06,7.38693327715883e-06,1.35657456882782e-05
3.19765597579713e-06,2.93482310731396e-06,8.51887751324471e-06,1.46513565963558e-05
3.37486672442344e-06,2.89772581330955e-06,8.00008860711959e-06,1.42726811448526e-05
