potencia_x,potencia_y,potencia_z,potencia_total_xyz
2.8476585643211e-05,0.000302740067577585,0.000184646890638655,0.000515863543859451
4.24269336767902e-05,1.86189917215142e-05,3.43485847371603e-05,9.53945101354646e-05
5.14631556757227e-05,3.32125538008198e-05,5.28257967607327e-05,0.000137501506237275
2.4960176525195e-05,1.92896327872696e-05,3.41194493059129e-05,7.83692586183776e-05
2.06178375752569e-05,1.7511697164601e-05,2.948783691656e-05,6.7617371656418e-05
8.12507101386904e-05,3.95801163133214e-05,4.54158484194156e-05,0.000166246674871427
3.86745461380236e-05,3.53107229745115e-05,5.05243361697396e-05,0.000124509605282275
2.23218319848042e-05,1.38426447804968e-05,2.21610888810172e-05,5.83255656463182e-05
0.000100150559637633,0.000141014072868218,0.000170049802169681,0.000411214434675532
0.000198517673103286,0.000223015194308267,0.0001699687936611,0.000591501661072654
0.000110649756045529,7.65402694694782e-05,6.99251669576675e-05,0.000257115192472674
0.000110514803710563,8.28520132049441e-05,7.79284926715968e-05,0.000271295309587104
0.000174224884968366,0.000223879074737156,0.000207128722585647,0.000605232682291169
0.000178446267030044,0.000269696985433379,0.000175423557534719,0.000623566809998142
0.000238922731003722,0.000168983261829116,0.000168507833736039,0.000576413826568877
0.000140119955030507,0.00017859307668364,0.000145022204910787,0.000463735236624933
7.99912570990773e-06,4.28654743047988e-06,1.7648445118845e-05,2.99341182592326e-05
0.000113222203327187,0.000114414896109768,0.000453339072148851,0.000680976171585807
0.000156503040999039,0.000327101603728179,0.000156151732524914,0.000639756377252133
0.000174990060226782,0.000126346468191824,0.000151936051966208,0.000453272580384814
0.000437109394114095,0.00107006521300889,0.000597135654783463,0.00210431026190645
0.000323975354823651,0.000705133687427649,0.000305646364556572,0.00133475540680787
0.000199740923563582,0.000455975815002558,0.000227487476422507,0.000883204214988647
2.75438373758449e-05,1.60848469184589e-05,4.25059529022257e-05,8.61346371965295e-05
5.05076401160345e-05,5.61324365531749e-05,5.37545129083873e-05,0.000160394589577597
0.000118556174790262,6.05680346171331e-05,7.84360104704445e-05,0.00025756021987784
0.000434983600575236,0.00164734164354342,0.000612548415793024,0.00269487365991168
0.000155355496961813,0.000465093027306357,0.000233691093674975,0.000854139617943145
3.2340416310278e-05,1.54171608255796e-05,3.11838140412649e-05,7.89413911771225e-05
4.13475033855665e-05,8.19088782177011e-05,6.22091238784672e-05,0.000185465505481735
1.33241770855268e-05,2.51226937853468e-05,2.57834137930512e-05,6.42302846639247e-05
1.92589953791984e-05,5.23391853148134e-05,3.53164046542852e-05,0.000106914585348297
4.22863522936935e-06,3.07653031704768e-06,1.20245793560624e-05,1.93297449024794e-05
3.75039829654004e-06,2.85620534428294e-06,1.02610814167485e-05,1.68676850575715e-05
3.96423875734572e-06,2.70489067304713e-06,1.08425765283041e-05,1.7511705958697e-05
4.03761241382257e-06,3.10629055915886e-06,1.07321054953691e-05,1.78760084683506e-05
4.9273036315084e-06,3.47144463643014e-06,1.10591292388845e-05,1.9457877506823e-05
4.30086032683214e-06,3.03702707414748e-06,1.05643195986289e-05,1.79022069996085e-05
4.2509788589594e-06,3.0948446101315e-06,9.93584194596383e-06,1.72816654150547e-05
7.15535287361502e-06,2.14838615082071e-05,1.43801175605819e-05,4.30193319424041e-05
9.71533689011558e-05,0.00031378732075923,0.000206376994949867,0.000617317684610252
2.93632549215648e-05,0.000126079387913709,7.13044898495262e-05,0.0002267471326848
3.11091990630607e-05,0.000100866933463975,6.03529933990433e-05,0.000192329125926079
2.3771651788378e-05,1.99383323313731e-05,2.94428550667379e-05,7.3152839186489e-05
0.000101238435124475,0.000242121501026931,0.000128648304238151,0.000472008240389557
1.29646859072586e-05,1.01328320579126e-05,1.89758511038036e-05,4.20733690689748e-05
6.44369276686133e-05,0.000117040818032639,8.37519663289159e-05,0.000265229712030168
3.91151165589161e-05,8.98742054597657e-05,4.90386154159838e-05,0.000178027937434666
4.57049873623177e-05,4.58622333359669e-05,4.11730734452411e-05,0.000132740294143526
7.81988361233671e-05,0.000138754766843494,9.01822466387018e-05,0.000307135849605563
0.000285759223714451,0.00103787716815771,0.000440210806704111,0.00176384719857627
0.000539540222473203,0.00176671290602514,0.000776714639375631,0.00308296776787398
0.000880463488249858,0.0021901350698507,0.00179683776236476,0.00486743632046532
0.0002364837766627,0.000741068977830572,0.000340184794583626,0.0013177375490769
1.67141771199254e-05,6.69553473799735e-06,2.35265761435458e-05,4.69362880014685e-05
2.49997610485139e-05,9.42631016740665e-06,2.80227852103759e-05,6.24488564262965e-05
0.000609058732426944,0.00221584990374634,0.00102525773900009,0.00385016637517337
0.000251666659185924,0.000550251579785849,0.00039781244730577,0.00119973068627754
0.000264318551571178,0.000584454105114697,0.000321368518648,0.00117014117533387
3.086109416568e-05,1.64725485083306e-05,3.11301409312244e-05,7.8463783605235e-05
5.15695761022493e-05,3.19215175720188e-05,5.85266335245048e-05,0.000142017727198773
6.15533377192097e-06,5.73616872425864e-06,1.70056296460593e-05,2.88971321422389e-05
3.81680020208642e-06,3.14949427837896e-06,9.94191725831724e-06,1.69082117387826e-05
5.41759452355396e-06,5.56091663397704e-06,1.48748119992837e-05,2.58533231568147e-05
1.2082324529969e-05,1.0091431257639e-05,1.78990523092919e-05,4.00728080969e-05
3.5668704269168e-06,2.89578023916343e-06,9.55947976925529e-06,1.60221304353355e-05
8.63702451753275e-06,6.17863493145773e-06,1.3255035308995e-05,2.80706947579855e-05
6.50747286845321e-06,3.90254723299504e-06,1.08208212624142e-05,2.12308413638625e-05
9.17755293352988e-06,8.58253661167179e-06,1.38453462837027e-05,3.16054358289044e-05
5.17086863062348e-06,4.46437637571394e-06,1.14889969583037e-05,2.11242419646411e-05
9.04797759002925e-06,4.83475953012442e-06,1.45537091981496e-05,2.84364463183032e-05
2.04274870984396e-05,9.21218221139616e-06,2.01440436926334e-05,4.97837130024692e-05
5.95334780601425e-06,4.34923547891369e-06,1.26771344205665e-05,2.29797177054944e-05
8.20858101746408e-06,8.12658625356857e-06,1.92643901515803e-05,3.5599557422613e-05
9.20885713144415e-06,8.83385818985555e-06,1.74447141715833e-05,3.5487429492883e-05
1.0362523782468e-05,1.63969129278506e-05,1.58260796494941e-05,4.25855163598127e-05
8.25405703967382e-06,7.787611855289e-06,1.36899923556566e-05,2.97316612506194e-05
3.52678832185198e-06,2.75771533398611e-06,8.64162392848753e-06,1.49261275843256e-05
3.5569746525231e-06,2.99758954103185e-06,8.75915470369452e-06,1.53137188972495e-05
3.70592426665111e-06,3.06553879442337e-06,9.00123798387855e-06,1.5772701044953e-05
3.68364062447272e-06,2.9846311808598e-06,9.24081085272736e-06,1.59090826580599e-05
3.84020765951734e-06,3.08143411765433e-06,8.91188782965959e-06,1.58335296068313e-05
3.6370851264302e-06,3.08523648566846e-06,8.86402143233419e-06,1.55863430444328e-05
8.32401159669328e-06,6.34372723420757e-06,1.21568299881329e-05,2.68245688190338e-05
8.70843222498268e-06,6.10417179359229e-06,1.41342894141526e-05,2.89468934327276e-05
4.67285193000559e-06,3.79625224793115e-06,9.86695648478655e-06,1.83360606627233e-05
4.2342108077708e-06,3.73373477409513e-06,1.04441955011294e-05,1.84121410829953e-05
4.83757377229646e-06,3.77412556277228e-06,1.06375072235301e-05,1.92492065585988e-05
7.40410451027109e-06,7.15756166867901e-06,1.5200664650788e-05,2.97623308297381e-05
3.89043147275508e-06,3.48171880743792e-06,1.01225988882456e-05,1.74947491684386e-05
3.72993939904232e-06,3.194034004215e-06,9.4409276408025e-06,1.63649010440598e-05
4.60382307311113e-06,3.41235341642312e-06,1.01351672016775e-05,1.81513436912117e-05
3.72504123007048e-06,3.13645836000958e-06,9.69102479935765e-06,1.65525243894377e-05
3.54639699311481e-06,2.95461681913849e-06,8.7213228053317e-06,1.5222336617585e-05
3.51886395655367e-06,3.08856421210576e-06,9.32656833801015e-06,1.59339965066696e-05
3.70732427874298e-06,3.02626328143831e-06,8.57182753351379e-06,1.53054150936951e-05
3.56239132983326e-06,2.97473320773591e-06,8.88656417771786e-06,1.5423688715287e-05
5.10424954128789e-06,4.23058584960311e-06,1.06360489418445e-05,1.99708843327355e-05
4.82864523058221e-06,3.65364971677044e-06,9.94045403816929e-06,1.84227489855219e-05
3.64043098601455e-06,3.08224483016648e-06,8.86590393669155e-06,1.55885797528726e-05
4.69331679517257e-06,3.6961999121442e-06,9.79581960764338e-06,1.81853363149602e-05
4.47451117467879e-06,4.39814485136506e-06,9.88639356550902e-06,1.87590495915529e-05
8.37918944865184e-06,7.4772884111925e-06,1.24605027738945e-05,2.83169806337389e-05
3.88261674525413e-06,3.19808448993137e-06,9.04628385305482e-06,1.61269850882403e-05
3.67121384401837e-06,3.07134122397181e-06,8.99617242618462e-06,1.57387274941748e-05
3.71772792618063e-06,3.03103741162527e-06,8.56028231033928e-06,1.53090476481452e-05
7.79135190130069e-06,7.37745708286171e-06,1.65154128764905e-05,3.16842218606529e-05
3.57907201342264e-06,2.93078218530117e-06,8.84059467302747e-06,1.53504488717513e-05
3.69515150389287e-06,3.1612418688946e-06,8.85793851522256e-06,1.571433188801e-05
5.19262119775717e-06,4.12099418127693e-06,1.01467108123465e-05,1.94603261913806e-05
4.68578803917854e-06,4.05320099648731e-06,1.03495572258743e-05,1.90885462615402e-05
3.85808813690026e-06,3.0066860581601e-06,9.35750472906912e-06,1.62222789241295e-05
3.86178267747538e-06,3.06259673941808e-06,9.09267942620375e-06,1.60170588430972e-05
3.60273002555522e-06,2.93695071220179e-06,8.78771095559417e-06,1.53273916933512e-05
3.72993406011485e-06,3.10131684779306e-06,9.10110694855795e-06,1.59323578564659e-05
4.66529635455403e-06,3.35588906645401e-06,9.96282687110165e-06,1.79840122921097e-05
5.65262099187692e-06,3.71188040757127e-06,1.08360662354513e-05,2.02005676348995e-05
3.378760006626e-06,2.95250218839535e-06,8.81256761866982e-06,1.51438298136912e-05
3.61874156142426e-06,2.90374327894328e-06,8.85853752379573e-06,1.53810223641633e-05
8.76073513942441e-06,9.35678290309323e-06,1.24544839919234e-05,3.0572002034441e-05
3.83907180701166e-06,3.06628302303434e-06,9.06630229642207e-06,1.59716571264681e-05
3.67440099840466e-06,3.12362034232913e-06,8.59819247148178e-06,1.53962138122156e-05
3.98676586116314e-06,2.98970750350787e-06,9.43714119413135e-06,1.64136145588024e-05
3.83455228821089e-06,2.9161735658313e-06,9.03819977063511e-06,1.57889256246773e-05
3.81144411956831e-06,3.16298892995272e-06,9.5109086750154e-06,1.64853417245364e-05
4.72361754851762e-06,3.28227310190836e-06,1.06688899365699e-05,1.86747805869959e-05
4.16623966837167e-06,3.50398193612982e-06,9.72706105997591e-06,1.73972826644774e-05
7.42146547024838e-06,3.89530028287954e-06,1.16204144543078e-05,2.29371802074357e-05
4.75992025452272e-06,4.89826401776552e-06,1.0988747829986e-05,2.06469321022742e-05
3.65342984900715e-06,2.9299803767065e-06,8.63809548271137e-06,1.5221505708425e-05
3.5650282340677e-06,3.25850951894017e-06,8.29578429441943e-06,1.51193220474273e-05
3.77957076810564e-06,3.31192782384171e-06,8.70423351834301e-06,1.57957321102904e-05
3.59412657455427e-06,2.80615984984261e-06,8.39173025219889e-06,1.47920166765958e-05
3.55626387293738e-06,2.81484201175519e-06,8.28571091355967e-06,1.46568167982522e-05
3.51572798901181e-06,2.83448191937002e-06,8.37134687164163e-06,1.47215567800235e-05
3.41135648875526e-06,2.78308814123574e-06,8.20569701409494e-06,1.44001416440859e-05
3.84294870020995e-06,3.03830519025007e-06,8.9208824557288e-06,1.58021363461888e-05
3.7274066678012e-06,3.03401429017118e-06,9.03352030090268e-06,1.57949412588751e-05
3.58486295599527e-06,2.99284881999246e-06,8.6702013649145e-06,1.52479131409022e-05
3.60196711066065e-06,2.76067688820188e-06,8.82997059268695e-06,1.51926145915495e-05
3.78047027972865e-06,2.92270208138537e-06,8.91041491308788e-06,1.56135872742019e-05
6.70990475828779e-06,4.69282626603501e-06,1.32832848367837e-05,2.46860158611065e-05
5.10022190174811e-06,3.56170816547567e-06,1.07560820482146e-05,1.94180121154384e-05
3.47669326929711e-06,2.91729893570039e-06,8.49770529485757e-06,1.48916974998551e-05
3.65671688942271e-06,2.80817467329313e-06,9.10679733689277e-06,1.55716888996086e-05
3.86296887682461e-06,3.23935562645825e-06,9.93079998225719e-06,1.70331244855401e-05
3.54997371191561e-06,2.9587787522899e-06,8.68828983396561e-06,1.51970422981711e-05
3.5975644686956e-06,2.86935981113446e-06,8.74358723422831e-06,1.52105115140584e-05
3.57199010902309e-06,3.04265331723873e-06,8.83240260276579e-06,1.54470460290276e-05
3.88032388375783e-06,3.14136279933553e-06,9.23434236551181e-06,1.62560290486052e-05
4.19019060162973e-06,3.28654996372093e-06,9.2590354709094e-06,1.67357760362601e-05
1.39000265369048e-05,1.37549187692321e-05,2.37280235402485e-05,5.13829688463854e-05
4.707300096558e-06,3.62017624023235e-06,1.0320686532143e-05,1.86481628689334e-05
3.80871896247988e-06,3.01754939542693e-06,9.31594071579001e-06,1.61422090736968e-05
3.73270513737843e-06,3.0113620750442e-06,8.57014827305026e-06,1.53142154854729e-05
3.92132242686507e-06,3.00837547556579e-06,9.0614224064585e-06,1.59911203088894e-05
3.70956387427184e-06,2.94784943615706e-06,8.98512771643509e-06,1.5642541026864e-05
3.56945244111861e-06,2.88318669044804e-06,9.08872432126773e-06,1.55413634528344e-05
3.46979970945619e-06,2.78149006793151e-06,8.72878030167758e-06,1.49800700790653e-05
4.00332989692502e-06,3.02380971143104e-06,9.14559351524556e-06,1.61727331236016e-05
3.68093601174589e-06,2.95301704260097e-06,8.84067581244723e-06,1.54746288667941e-05
3.73750422288899e-06,2.83852808582659e-06,8.75948599954706e-06,1.53355183082626e-05
3.36689858383647e-06,2.87480300464587e-06,8.91334725203311e-06,1.51550488405154e-05
3.67435260272789e-06,2.93538839474595e-06,8.47759087786581e-06,1.50873318753397e-05
1.21562783560445e-05,1.90800946096693e-05,2.86380336446287e-05,5.98744066103425e-05
7.82451229763375e-06,4.95085419845771e-06,1.18352361254812e-05,2.46106026215727e-05
8.34739775913078e-06,7.17179505816618e-06,1.37554651936252e-05,2.92746580109221e-05
6.10567257039184e-06,4.40472645457325e-06,1.02098096767475e-05,2.07202087017126e-05
4.19600973225694e-06,3.74590506288685e-06,9.34957896436754e-06,1.72914937595113e-05
9.05934373645731e-06,1.07512774996944e-05,1.59771413917786e-05,3.57877626279304e-05
8.0285372662638e-06,5.89853255991102e-06,1.15088943245096e-05,2.54359641506844e-05
7.61596800895006e-06,8.90012228978185e-06,1.30614664822305e-05,2.95775567809624e-05
5.34981584209929e-06,4.26657071632126e-06,1.05978691827123e-05,2.02142557411329e-05
6.22785554658707e-06,5.02363326269507e-06,1.33646750495642e-05,2.46161638588463e-05
3.81670346966309e-06,3.25094816163947e-06,9.39421569469995e-06,1.64618673260025e-05
7.03996153159271e-06,4.80960252959751e-06,1.22064688666556e-05,2.40560329278458e-05
5.55361231078137e-06,4.03242207831878e-06,1.01775500913493e-05,1.97635844804495e-05
5.59039395813332e-06,5.94274578306057e-06,1.22166340003226e-05,2.37497737415165e-05
4.18434356653375e-06,3.97188577734376e-06,9.47915238516788e-06,1.76353817290454e-05
4.63193245733986e-06,3.18877593552852e-06,9.60352031226347e-06,1.74242287051319e-05
4.63128107130978e-06,3.40161422550628e-06,9.63902521090372e-06,1.76719205077198e-05
4.19724587926156e-06,3.20702675111326e-06,9.00407784273721e-06,1.6408350473112e-05
4.03699778432646e-06,3.19522126158438e-06,1.02431625755367e-05,1.74753816214475e-05
4.63249041445506e-06,3.5416609100353e-06,9.44818089388746e-06,1.76223322183778e-05
4.51537494067713e-06,3.40673718969566e-06,9.46299562481392e-06,1.73851077551867e-05
5.86425745639785e-06,5.74389305981421e-06,1.12804207293578e-05,2.28885712455699e-05
3.8692330798501e-06,2.85251773220233e-06,9.23369471299069e-06,1.59554455250431e-05
8.79682200694082e-06,5.59558692633966e-06,1.09851249990091e-05,2.53775339322896e-05
5.62410498378613e-06,4.06855827579413e-06,1.02598478999575e-05,1.99525111595377e-05
3.59263385542574e-06,3.11115158117659e-06,8.6610055429049e-06,1.53647909795072e-05
3.94862456805194e-06,3.50093378267703e-06,9.6185224501019e-06,1.70680808008309e-05
3.34244129370877e-06,2.95000101783319e-06,7.91518908886697e-06,1.42076314004089e-05
4.1492430696365e-06,3.60403853952387e-06,9.72050754241772e-06,1.74737891515781e-05
5.06956751257599e-06,3.95975628880716e-06,9.46110095701585e-06,1.8490424758399e-05
4.50980179086872e-06,4.38260797731594e-06,1.06418740043561e-05,1.95342837725408e-05
3.49181005873822e-06,2.80427696409235e-06,7.92359851861838e-06,1.4219685541449e-05
4.17060170132419e-06,4.21728498781943e-06,9.89805948822166e-06,1.82859461773653e-05
3.45024132382678e-06,2.79115036489335e-06,7.91466253744682e-06,1.4156054226167e-05
3.33023018180696e-06,2.94650879317874e-06,8.63423485737909e-06,1.49109738323648e-05
1.02964798284514e-05,1.17092603802565e-05,2.37044680116355e-05,4.57102082203433e-05
4.45516403890789e-06,3.49523086780694e-06,9.40939135520651e-06,1.73597862619213e-05
6.2978955431378e-06,3.78937124438183e-06,9.26067626501728e-06,1.93479430525369e-05
3.46922023125958e-06,2.96742421537646e-06,8.14685894815288e-06,1.45835033947889e-05
3.48323349521287e-06,3.00364344594468e-06,8.52459527731528e-06,1.50114722184728e-05
7.75481764556256e-06,1.09500021676587e-05,1.51412390242429e-05,3.38460588374641e-05
5.63417106287848e-06,6.49530814610509e-06,1.24551398008008e-05,2.45846190097843e-05
5.02769952291801e-06,6.68784154852681e-06,1.13483951763366e-05,2.30639362477814e-05
4.20308837826025e-06,4.83348603934146e-06,8.46466555814224e-06,1.75012399757439e-05
9.60741578280412e-06,8.10993936461176e-06,1.18536838321574e-05,2.95710389795733e-05
3.44057257205617e-06,2.91624931345599e-06,8.64671777276318e-06,1.50035396582753e-05
4.94369890590046e-06,3.06398194110862e-06,8.78860878879426e-06,1.67962896358033e-05
6.24733401596251e-06,6.21742886236263e-06,1.22695031983632e-05,2.47342660766883e-05
7.97924280071463e-06,8.84084657650466e-06,1.5015624727826e-05,3.18357141050453e-05
4.52033775627314e-06,5.40888412121782e-06,9.88786035075151e-06,1.98170822282425e-05
4.06815846537124e-06,4.99652866861481e-06,8.71146314007847e-06,1.77761502740645e-05
4.14479460328623e-06,4.88022234639597e-06,9.37285382662911e-06,1.83978707763113e-05
4.11536779501485e-06,5.0131188812973e-06,8.96070189933672e-06,1.80891885756489e-05
9.91619093699785e-06,1.0402533459216e-05,1.68705255815092e-05,3.71892499777231e-05
5.77094626811326e-06,7.07710701981794e-06,1.21100702776245e-05,2.49581235655557e-05
5.60300066890273e-06,5.96834105419089e-06,1.08917327843953e-05,2.24630745074889e-05
6.87248861148104e-06,4.33583363993197e-06,9.98327113533019e-06,2.11915933867432e-05
4.06159222071193e-06,5.15694247398769e-06,1.02912251921201e-05,1.95097598868197e-05
4.52431951672884e-06,6.05949706242098e-06,1.25519916127166e-05,2.31358081918665e-05
4.09207249280221e-06,4.40878568844851e-06,1.01178147366127e-05,1.86186729178635e-05
5.22133004657619e-06,3.8449101332361e-06,9.71736616259286e-06,1.87836063424052e-05
5.89583839169257e-06,6.61224989356682e-06,1.16548092885667e-05,2.41628975738261e-05
4.28384294681227e-06,4.74053994195653e-06,1.07354035482947e-05,1.97597864370635e-05
5.05128130311227e-06,4.5178710010228e-06,1.00944507287123e-05,1.96636030328474e-05
5.63927883746013e-06,4.21970907854915e-06,9.92509358687888e-06,1.97840815028882e-05
4.02761208136846e-06,3.48676744636258e-06,8.98159143959812e-06,1.64959709673292e-05
6.51793131433368e-06,9.75967057516399e-06,1.41592606530436e-05,3.04368625425413e-05
4.61076517018208e-06,6.44677335250353e-06,1.19643308811817e-05,2.30218694038673e-05
4.65623823635137e-06,5.30425600106239e-06,1.16590164486716e-05,2.16195106860854e-05
4.97204781412752e-06,4.95720523894018e-06,1.08895666188325e-05,2.08188196719002e-05
4.14663608157125e-06,4.82733931161032e-06,1.06891354720615e-05,1.9663110865243e-05
4.54523456280219e-06,5.05513924900495e-06,1.05500148069144e-05,2.01503886187215e-05
7.15716201960536e-06,1.00288591174129e-05,1.47669169091693e-05,3.19529380461875e-05
5.06872693692762e-06,3.66876460371656e-06,1.01736462190211e-05,1.89111377596653e-05
3.26888660414242e-06,2.93840163187062e-06,7.26375642715891e-06,1.34710446631719e-05
3.23304928982841e-06,3.05352909671887e-06,7.40492129046967e-06,1.3691499677017e-05
4.08718841967367e-06,3.46213600060416e-06,9.03157301249773e-06,1.65808974327756e-05
3.32235757075485e-06,3.09902522301314e-06,7.63869472895446e-06,1.40600775227224e-05
1.03057271866718e-05,7.98547257417878e-06,1.13765817571228e-05,2.96677815179734e-05
5.08333476676894e-06,3.53953385547157e-06,7.30698684261245e-06,1.5929855464853e-05
3.33223458943056e-06,2.83776768929506e-06,7.40080932384342e-06,1.3570811602569e-05
3.18250867555054e-06,2.95331923123789e-06,7.43302605169655e-06,1.3568853958485e-05
5.01330798893619e-06,6.76845355568743e-06,1.44482078777314e-05,2.6229969422355e-05
7.58776231289097e-06,1.21761296828968e-05,1.83376391054397e-05,3.81015311012275e-05
4.0829187829234e-06,6.12783981837176e-06,1.08884876909307e-05,2.10992462922258e-05
4.03852242793304e-06,5.14366231797852e-06,1.00507882634336e-05,1.92329730093452e-05
4.24786545081383e-06,5.24291793671925e-06,1.04271860069004e-05,1.99179693944335e-05
7.21037366083417e-06,9.04195299905986e-06,1.24481212425444e-05,2.87004479024384e-05
4.44294616996345e-06,5.45369657174202e-06,1.07472598887501e-05,2.06439026304556e-05
5.92981402622067e-06,1.01715383043757e-05,1.29015004204828e-05,2.90028527510792e-05
4.68414156603569e-06,6.44197515567292e-06,1.15643701510125e-05,2.26904868727212e-05
6.83308197367372e-06,8.60896398301815e-06,1.27515847728767e-05,2.81936307295686e-05
5.31080793583333e-06,6.38154455905145e-06,1.05145918768021e-05,2.22069443716868e-05
3.82024968030781e-06,4.38032362016378e-06,8.7424913059435e-06,1.69430646064151e-05
4.20286450709359e-06,4.41775435078138e-06,8.42474967046552e-06,1.70453685283405e-05
3.33777983448936e-06,3.11417565734171e-06,7.39945809918064e-06,1.38514135910117e-05
4.05196811337764e-06,5.8095688183414e-06,9.06301811363754e-06,1.89245550453566e-05
7.21921765257854e-06,9.57998448492523e-06,1.23265490568408e-05,2.91257511943446e-05
3.40922139817766e-06,2.92419207477248e-06,7.5660319680742e-06,1.38994454410243e-05
5.99190698492591e-06,1.16283379754989e-05,1.22469060172198e-05,2.98671509776447e-05
6.05041556667301e-06,1.43890668538682e-05,1.35351093882716e-05,3.39745918088128e-05
4.91641538148502e-06,9.21920785511694e-06,1.32336925614035e-05,2.73693157980055e-05
4.33183339664819e-06,6.47145812404308e-06,1.2035821633765e-05,2.28391131544562e-05
4.42555577132466e-06,4.9908253606343e-06,1.13700274389751e-05,2.0786408570934e-05
4.73794898496597e-06,6.49788606513895e-06,1.12740676752191e-05,2.2509902725324e-05
6.12121196019294e-06,7.26891600507231e-06,1.31380103474368e-05,2.6528138312702e-05
5.77526824793178e-06,7.77768533170726e-06,1.32347627906897e-05,2.67877163703287e-05
6.84158384659791e-06,8.14707389583158e-06,1.35168941804617e-05,2.85055519228912e-05
4.26581057284263e-06,5.35386174499332e-06,1.00858389741755e-05,1.97055112920114e-05
3.06100722315611e-06,2.76763948099365e-06,6.82994840147732e-06,1.26585951056271e-05
4.89976248916032e-06,3.71917286560715e-06,9.35746488881794e-06,1.79764002435854e-05
4.69872469015536e-06,4.54500315422019e-06,9.61684466047753e-06,1.88605725048531e-05
8.58092072004639e-06,1.50572191251024e-05,1.39739536781804e-05,3.76120935233291e-05
4.24022411259453e-06,7.22937069478541e-06,1.04499406096803e-05,2.19195354170603e-05
3.76042157682163e-06,4.42411018337574e-06,8.92901937374662e-06,1.7113551133944e-05
5.52405565629547e-06,5.83077995247105e-06,1.24295805637287e-05,2.37844161724953e-05
7.41125008828778e-06,9.14914516674376e-06,1.33397553213449e-05,2.99001505763765e-05
5.01167803442465e-06,4.55431656736556e-06,8.32925138493066e-06,1.78952459867209e-05
4.82260818474767e-06,4.73999874529281e-06,8.52549645603692e-06,1.80881033860774e-05
4.21280100540845e-06,4.93524239738642e-06,8.45286772419768e-06,1.76009111269925e-05
7.3323478643206e-06,6.80627124099699e-06,1.50232404683703e-05,2.91618595736879e-05
5.49565196438944e-06,4.62867945706317e-06,9.66514791836798e-06,1.97894793398206e-05
6.6204559864293e-06,1.11501969770186e-05,1.31856976141112e-05,3.09563505775591e-05
7.00434239308211e-06,9.47471686824556e-06,1.28476370374179e-05,2.93266962987456e-05
6.49845793228759e-06,1.00345466009315e-05,1.15949136051155e-05,2.81279181383347e-05
4.11609199781587e-06,6.13404117179898e-06,1.09255122971806e-05,2.11756454667954e-05
5.39330982901135e-06,6.69505025593329e-06,1.11186880474692e-05,2.32070481324138e-05
4.02890574310621e-06,5.29522184055731e-06,8.87224372407189e-06,1.81963713077354e-05
3.7429022700264e-06,4.47091257650909e-06,8.53887216046965e-06,1.67526870070051e-05
4.2325077822674e-06,5.50869964850857e-06,8.76981361153903e-06,1.8511021042315e-05
4.27977267297606e-06,5.1110802297154e-06,9.36778367519349e-06,1.8758636577885e-05
6.1162539215155e-06,8.78915186944253e-06,1.08617296596566e-05,2.57671354506147e-05
5.66821105286943e-06,7.88277333218903e-06,1.02071441243189e-05,2.37581285093774e-05
4.74724014007109e-06,6.47342694981566e-06,1.09554231521886e-05,2.21760902420753e-05
4.71555828457018e-06,7.79836957695468e-06,9.34328500135243e-06,2.18572128628773e-05
4.27098429160004e-06,5.69158772856165e-06,8.6028829213937e-06,1.85654549415554e-05
4.39587791645817e-06,3.91393593732058e-06,8.74124358420988e-06,1.70510574379886e-05
5.87986839897273e-06,1.27286045169454e-05,1.27614902489184e-05,3.13699631648365e-05
5.63469372449945e-06,8.43472574042137e-06,1.17403684743266e-05,2.58097879392474e-05
4.96821850238326e-06,8.42001581303653e-06,1.19273551970319e-05,2.53155895124517e-05
5.0836230698202e-06,4.32208903283469e-06,9.87624487704465e-06,1.92819569796995e-05
6.72066806396063e-06,1.46695818327885e-05,1.52194118416153e-05,3.66096617383645e-05
7.57018743368419e-06,1.00305154600658e-05,1.27196285117211e-05,3.03203314054711e-05
7.11051787154894e-06,6.24926267437141e-06,1.28732822840656e-05,2.6233062829986e-05
8.2295114423341e-06,5.28539105056143e-06,1.12802117439843e-05,2.47951142368798e-05
5.41382643195497e-06,7.55667332740786e-06,1.12549336694897e-05,2.42254334288525e-05
5.46501513405356e-06,9.56866336780824e-06,1.31899385657907e-05,2.82236170676525e-05
3.30630609711327e-06,2.77029899037571e-06,7.38333178768996e-06,1.34599368751789e-05
5.53306004415765e-06,9.08182967059174e-06,1.3893783581757e-05,2.85086732965064e-05
4.68979385254704e-06,4.74592301439185e-06,1.0235748273807e-05,1.96714651407459e-05
5.50997983742944e-06,1.27986119931936e-05,1.39645264894658e-05,3.22731183200888e-05
5.78283947044624e-06,7.7064469316702e-06,1.22206445091065e-05,2.5709930911223e-05
1.07122879389333e-05,1.3013920372215e-05,1.5829556664581e-05,3.95557649757293e-05
4.64725506110573e-06,8.37024323763034e-06,1.12696405314768e-05,2.42871388302129e-05
4.45913690755038e-06,5.95733275190195e-06,1.01929066639782e-05,2.06093763234305e-05
1.2859797361269e-05,1.83675970025697e-05,3.11435448552372e-05,6.2370939219076e-05
8.43320394150986e-05,0.000179770195139125,8.41495515887841e-05,0.000348251786143007
5.96215060659309e-05,5.54454672316273e-05,5.14952154388549e-05,0.000166562188736413
0.000153608849527771,8.04501755976246e-05,0.000182113385232796,0.000416172410358192
0.000174941325258618,0.000214192236000134,0.000253130425464394,0.000642263986723145
0.000205393883161326,0.000204144337408417,0.000208570620824559,0.000618108841394301
6.87843137740555e-05,4.20263953762527e-05,6.53252342162973e-05,0.000176135943366605
5.22350975837376e-06,4.12992619351752e-06,1.14960575722873e-05,2.08494935241786e-05
4.405758384364e-06,3.36787992524873e-06,1.07049895686487e-05,1.84786278782615e-05
1.29624918023846e-05,6.98445187901646e-06,1.54227183660011e-05,3.53696620474022e-05
7.59209986513227e-06,6.90823941882525e-06,1.46776016667304e-05,2.91779409506879e-05
4.31513245236286e-06,3.2782064379635e-06,8.72196891868114e-06,1.63153078090075e-05
4.1427859720381e-06,2.89166024514378e-06,8.6204128272348e-06,1.56548590444167e-05
4.07043334887684e-06,2.95044834806799e-06,8.78622413996115e-06,1.5807105836906e-05
3.84386832038955e-06,2.86595843857535e-06,7.99132977140994e-06,1.47011565303748e-05
3.76943519847937e-06,2.91400469926334e-06,7.62067071097108e-06,1.43041106087138e-05
4.17653605145449e-06,3.13276623455655e-06,8.78437040148089e-06,1.60936726874919e-05
4.17087006169824e-06,2.90562757891736e-06,8.18245910795521e-06,1.52589567485708e-05
4.21270246523482e-06,3.06512188505362e-06,8.3858513975767e-06,1.56636757478651e-05
1.44630196850186e-05,9.83190475883409e-06,1.45639557309744e-05,3.8858880174827e-05
3.80436713106766e-06,3.04928390801469e-06,8.25951558746347e-06,1.51131666265458e-05
1.19865859538288e-05,1.18410845272819e-05,1.61316839192052e-05,3.9959354400316e-05
3.9516024213056e-06,2.93881006166278e-06,7.85292972766759e-06,1.4743342210636e-05
8.9422374315413e-06,5.96801201884935e-06,1.43932659231104e-05,2.9303515373501e-05
3.18048163119372e-05,2.14316052081329e-05,3.78972913038756e-05,9.11337128239457e-05
5.66314199623785e-05,2.02764559715198e-05,2.49089263354758e-05,0.000101816802269374
0.00017849030588411,0.000175577504246748,0.000113536224415486,0.000467604034546344
8.2976782029778e-06,7.08347617216014e-06,1.20083317944146e-05,2.73894861695525e-05
2.06166254085346e-05,8.626672700722e-06,1.89327130508719e-05,4.81760111601285e-05
2.50442290123352e-05,1.72408088290379e-05,2.50910458036267e-05,6.73760836449997e-05
3.61839472818251e-06,2.84920064690398e-06,8.18271406849351e-06,1.465030944358e-05
3.09624802783862e-06,2.56504251966096e-06,7.71976080649271e-06,1.33810513539923e-05
5.00325300826187e-06,3.56659118506579e-06,1.00865765933772e-05,1.86564207867048e-05
2.22778110894142e-05,1.31417656254943e-05,2.04620670870849e-05,5.58816438019934e-05
5.0841606483447e-06,3.46479769718464e-06,9.17478800444529e-06,1.77237463499746e-05
5.83153121794796e-06,4.1083974845352e-06,9.79938211963749e-06,1.97393108221206e-05
3.5779977156084e-06,3.02469677527576e-06,7.96364818584918e-06,1.45663426767333e-05
3.57283980530448e-06,2.59992248841944e-06,7.27756811623422e-06,1.34503304099581e-05
5.35056769166935e-06,3.69716861992934e-06,9.33722744704165e-06,1.83849637586403e-05
5.23178317061599e-06,3.05519521309416e-06,8.96048804946311e-06,1.72474664331733e-05
3.67104562912447e-06,3.03450238093899e-06,7.72099727989584e-06,1.44265452899593e-05
3.32951586224104e-06,2.64610413376803e-06,7.59775447160656e-06,1.35733744676156e-05
2.93240043166112e-06,2.46868075841983e-06,7.12895033561951e-06,1.25300315257004e-05
5.02877751455988e-06,3.22895814132186e-06,8.35884403610337e-06,1.66165796919851e-05
4.38826359623772e-06,2.97031525274703e-06,8.16498012719299e-06,1.55235589761777e-05
4.5235599252612e-06,2.95577669621725e-06,8.76077460799363e-06,1.62401112294721e-05
4.51281061613979e-06,3.00656071155595e-06,8.48220833351576e-06,1.60015796612115e-05
4.73490848803612e-06,3.36656655908865e-06,8.51311119407116e-06,1.66145862411959e-05
3.87378888939718e-06,2.81527938838688e-06,8.2209989187031e-06,1.49100671964872e-05
3.73771326105072e-06,2.80069151028431e-06,8.16667291506951e-06,1.47050776864045e-05
1.47195117888217e-05,8.47340480367231e-06,1.71692592577737e-05,4.03621758502677e-05
4.75269914752533e-05,2.58747990465615e-05,3.53287039595606e-05,0.000108730494481375
4.23763369518708e-05,2.71830831557581e-05,4.00316543912851e-05,0.000109591074498914
4.36807123778374e-06,3.24745810452882e-06,9.65628213452693e-06,1.72718114768395e-05
5.68685433370009e-06,3.69531794312705e-06,9.75154124573948e-06,1.91337135225666e-05
7.32710073953921e-06,4.62245129067837e-06,1.04349671008156e-05,2.23845191310332e-05
5.77766979701655e-06,4.04060821534032e-06,9.21428471815697e-06,1.90325627305138e-05
7.16861047251299e-06,3.9021038677741e-06,1.09656929874172e-05,2.20364073277043e-05
7.38688359254695e-06,5.33050816862885e-06,1.12025327557793e-05,2.3919924516955e-05
6.33697210454957e-06,4.05467203774173e-06,1.02253313262217e-05,2.0616975468513e-05
4.47447589981155e-06,3.16822840687948e-06,8.30706435975148e-06,1.59497686664425e-05
1.95021451032946e-05,8.15540095950854e-06,1.46377039585433e-05,4.22952500213464e-05
4.66138909945158e-06,3.34566536503267e-06,9.09594797137276e-06,1.7103002435857e-05
3.92126920294025e-06,2.93171978176713e-06,8.47897332500869e-06,1.53319623097161e-05
2.60828991612007e-05,1.54347065973029e-05,2.79558707711493e-05,6.94734765296529e-05
6.1298870505267e-06,3.94875074816776e-06,1.02011474541437e-05,2.02797852528382e-05
6.71400751648807e-06,5.26413609433437e-06,1.03762391238539e-05,2.23543827346763e-05
4.53855599809621e-06,2.95798625401325e-06,8.01168866902384e-06,1.55082309211333e-05
1.16059395308479e-05,7.61675452118083e-06,1.36050006900719e-05,3.28276947421007e-05
5.66024198375661e-05,4.38190190082563e-05,4.07161640361174e-05,0.00014113760288194
0.000107589349037966,4.44305196372144e-05,9.02506114625237e-05,0.000242270480137704
1.08369857548415e-05,7.31884947740779e-06,1.26040547144003e-05,3.07598899466495e-05
1.74927538854164e-05,9.62125500165767e-06,1.72060052986134e-05,4.43200141856876e-05
2.14356285081748e-05,1.23207044046986e-05,2.1977655651744e-05,5.57339885646174e-05
2.15945531737758e-05,1.46553212973919e-05,1.56165259461469e-05,5.18664004173147e-05
4.72093389661924e-05,3.05873377866717e-05,4.27707251972048e-05,0.000120567401950069
3.07467436036073e-05,1.32512740648725e-05,2.50799337362322e-05,6.9077951404712e-05
1.32105442067012e-05,5.41292066577639e-06,1.34821839224948e-05,3.21056487949725e-05
5.33817606787012e-06,3.40294619480044e-06,8.64303181078867e-06,1.73841540734592e-05
5.54166926659552e-06,3.83710543872311e-06,8.68193281401261e-06,1.80607075193312e-05
5.04130974439775e-06,3.72842889424303e-06,8.19580153009359e-06,1.69655401687344e-05
8.42189990972683e-06,4.80724782751272e-06,1.0256334132572e-05,2.34854818698116e-05
1.03454500517533e-05,8.50077621006228e-06,1.43574595517804e-05,3.3203685813596e-05
5.00529186749942e-06,3.21524096232647e-06,8.5654203257337e-06,1.67859531555596e-05
5.37898156896132e-06,3.68528196109838e-06,9.0909930379378e-06,1.81552565679975e-05
2.79394519251173e-05,1.63423589200193e-05,2.18481014061256e-05,6.61299122512622e-05
1.19618684452701e-05,8.23235242242654e-06,1.42867954469038e-05,3.44810163146004e-05
1.03106211015865e-05,7.65445821437207e-06,1.36570416069871e-05,3.16221209229457e-05
4.43455581251501e-06,3.18524356857246e-06,8.79322617837742e-06,1.64130255594649e-05
5.61411730872371e-06,4.00141199806875e-06,9.79557204961054e-06,1.9411101356403e-05
7.67795823887279e-06,5.19698712882549e-06,1.16171762740059e-05,2.44921216417042e-05
5.1996210439344e-06,3.39219214105122e-06,8.73351590626008e-06,1.73253290912457e-05
5.3456846476323e-06,3.89832690384004e-06,8.97770758956702e-06,1.82217191410394e-05
4.89181920282317e-06,3.42449474050476e-06,8.66484172072069e-06,1.69811556640486e-05
7.95360519745074e-06,5.62415798733504e-06,1.00775662065515e-05,2.36553293913373e-05
7.98825451478709e-06,4.77616644841381e-06,1.14614900824427e-05,2.42259110456436e-05
5.19411510235139e-06,3.27037730626808e-06,8.08004386922339e-06,1.65445362778429e-05
5.74568100877788e-06,4.54335772119284e-06,1.02601485866289e-05,2.05491873165996e-05
1.5717675275694e-05,1.16876971784185e-05,1.90354033929456e-05,4.64407758470582e-05
6.31630581647051e-06,4.27338705411569e-06,1.12068559532175e-05,2.17965488238037e-05
6.57098154759384e-06,3.69983893469484e-06,9.6667640416855e-06,1.99375845239742e-05
7.97699375975058e-06,6.67034613023548e-06,1.29264580037006e-05,2.75737978936867e-05
9.42434903897292e-06,5.94535650337429e-06,1.17819641444668e-05,2.7151669686814e-05
5.15998289691107e-06,3.64823694246045e-06,9.3422762898693e-06,1.81504961292408e-05
1.034376849092e-05,7.80539348465896e-06,1.339007150314e-05,3.15392334787189e-05
0.000104306163159689,3.27958902855432e-05,4.9422001083786e-05,0.000186524054529018
1.89913828401346e-05,1.25688192585774e-05,1.87580205387305e-05,5.03182226374426e-05
8.40776234512491e-06,5.94372552382406e-06,1.12107609612369e-05,2.55622488301859e-05
7.52083019660009e-05,3.29768743347035e-05,2.96938847645435e-05,0.000137879061065248
4.88387859395663e-05,4.07233409879877e-05,5.36334753932735e-05,0.000143195602320828
2.81566090643198e-05,2.39899174905206e-05,3.57620937799409e-05,8.79086203347813e-05
8.57150910112225e-06,5.03136100515419e-06,9.9300279796636e-06,2.353289808594e-05
6.94008562712665e-06,4.09444823943756e-06,9.54168404532952e-06,2.05762179118937e-05
6.40066990024989e-06,4.65552441844484e-06,9.58751890753764e-06,2.06437132262324e-05
5.34000893405835e-06,4.00959342846253e-06,9.835824613353e-06,1.91854269758739e-05
6.45519931717599e-06,3.70039450645142e-06,1.02383109658609e-05,2.03939047894883e-05
6.80084032479736e-06,3.9982462653248e-06,9.25406742478595e-06,2.00531540149081e-05
5.06132644069593e-06,3.51941431353766e-06,8.14782650628107e-06,1.67285672605147e-05
1.75762842266059e-05,9.72561746157078e-06,1.84394716640155e-05,4.57413733521922e-05
3.8118705852434e-06,2.96144889642783e-06,7.4719900531531e-06,1.42453095348243e-05
1.42062270027872e-05,8.94474152226631e-06,1.70362298169826e-05,4.01871983420361e-05
4.79901879860115e-06,2.74369698669629e-06,6.8254372098358e-06,1.43681529951332e-05
2.35039350070161e-05,1.07573095524631e-05,1.89250334167583e-05,5.31862779762375e-05
1.56185962545012e-05,9.95083429093696e-06,2.55912646127763e-05,5.11606951582145e-05
3.57832769779928e-06,2.90298067210015e-06,7.55845848066452e-06,1.4039766850564e-05
1.73408819276135e-05,1.12429488062829e-05,1.87648657022551e-05,4.73486964361515e-05
9.01255004287758e-06,6.15634578810541e-06,1.60299852492903e-05,3.11988810802733e-05
4.85909757809496e-06,3.44665943510296e-06,8.64892086067163e-06,1.69546778738695e-05
4.88179812837391e-06,3.71785437010677e-06,8.38354420274691e-06,1.69831967012276e-05
5.58552886626987e-06,3.58054431727653e-06,8.62886643202993e-06,1.77949396155763e-05
6.49827503788625e-06,4.58066772138997e-06,1.072922798549e-05,2.18081707447662e-05
3.74768580274868e-06,3.89308200967161e-06,8.78677806291737e-06,1.64275458753377e-05
3.76755811739355e-06,3.35340321334195e-06,8.1765053599239e-06,1.52974666906594e-05
1.63543888149851e-05,1.37715887137276e-05,1.50379872107641e-05,4.51639647394767e-05
5.57815016301576e-06,4.45352329767667e-06,9.45065188371721e-06,1.94823253444096e-05
5.36394831686001e-06,4.6102091169672e-06,1.08733631551598e-05,2.0847520588987e-05
6.39290541550104e-06,7.8937848620987e-06,1.26279744772621e-05,2.69146647548618e-05
5.41360364703667e-06,3.4265372306564e-06,8.1497967885454e-06,1.69899376662385e-05
5.01213080683563e-06,3.48557608561608e-06,8.1696804133857e-06,1.66673873058374e-05
4.03533794381158e-06,3.05472216339821e-06,7.83289445417961e-06,1.49229545613894e-05
7.54495041148511e-06,4.15800981705885e-06,9.65842488237357e-06,2.13613851109175e-05
7.76757432654933e-06,5.11698115371352e-06,1.11446316161068e-05,2.40291870963697e-05
3.49982645645356e-06,3.00189635698043e-06,7.62538678152305e-06,1.4127109594957e-05
4.16758167491589e-06,3.51110842893943e-06,8.42979714841921e-06,1.61084872522745e-05
1.11519093427763e-05,9.58221771227827e-06,1.50477400867263e-05,3.57818671417809e-05
6.35581505432047e-06,4.93055994205095e-06,1.00256542150249e-05,2.13120292113963e-05
1.96019599851709e-05,1.95307276050075e-05,1.4168519238549e-05,5.33012068287274e-05
6.27448369124785e-06,5.0668177474817e-06,1.16006257235321e-05,2.29419271622616e-05
1.0497902487005e-05,7.32747649200623e-06,1.19801214767304e-05,2.98055004557417e-05
4.34689689391402e-06,2.83281016457465e-06,7.68622672683211e-06,1.48659337853208e-05
5.55076416728276e-06,3.53766443440086e-06,9.55723844505892e-06,1.86456670467425e-05
1.37076778536857e-05,1.20864730560494e-05,2.18425892657902e-05,4.76367401755252e-05
3.83385044372568e-06,3.55825853099356e-06,8.22447271041667e-06,1.56165816851359e-05
3.44361328223074e-06,3.08540303469623e-06,7.98977972545535e-06,1.45187960423823e-05
3.88542933462397e-06,3.22557528498025e-06,8.17076621328422e-06,1.52817708328885e-05
2.92858062691535e-06,2.38757401867897e-06,6.17562018178845e-06,1.14917748273828e-05
2.75636151924665e-06,2.45098431125768e-06,6.33845979274547e-06,1.15458056232498e-05
3.29547880183165e-06,2.84551732578955e-06,7.65966983528438e-06,1.38006659629056e-05
3.67872231966453e-06,2.99468263330078e-06,7.75782474787771e-06,1.4431229700843e-05
3.38046826040451e-06,2.81263651496129e-06,7.36017244739815e-06,1.35532772227639e-05
3.28558902147515e-06,2.64529294577467e-06,7.08541668235212e-06,1.30162986496019e-05
3.26427249471735e-06,2.69479034237721e-06,7.37352346603376e-06,1.33325863031283e-05
3.16776679149246e-06,2.67638477494415e-06,6.94384583135322e-06,1.27879973977898e-05
3.19580973485169e-06,2.69114115449149e-06,7.2428754095001e-06,1.31298262988433e-05
3.16717718680943e-06,2.54167952640741e-06,6.59760552285175e-06,1.23064622360686e-05
3.10568121431893e-06,2.61861784801361e-06,6.6660645847313e-06,1.23903636470638e-05
3.3048106067105e-06,2.61058246821861e-06,7.40236366501235e-06,1.33177567399415e-05
3.06384379055702e-06,2.53514811155794e-06,6.56021794763057e-06,1.21592098497455e-05
3.32242511840097e-06,2.7127080293874e-06,6.98988764082923e-06,1.30250207886176e-05
2.8754451823764e-06,2.44681194050031e-06,6.47196328106069e-06,1.17942204039374e-05
2.91252554632313e-06,2.52073942824121e-06,7.07439846369304e-06,1.25076634382574e-05
3.53645532972136e-06,2.98043851455692e-06,7.70881148376178e-06,1.42257053280401e-05
1.50761138519107e-05,9.21825336248481e-06,1.94806223709091e-05,4.37749895853046e-05
3.30797976890675e-06,2.66444921198183e-06,7.28579153784921e-06,1.32582205187378e-05
3.77229326028301e-06,2.89657373588318e-06,7.67025074759168e-06,1.43391177437579e-05
3.40936983373919e-06,2.71571118013544e-06,7.03864723359711e-06,1.31637282474717e-05
1.89097382160579e-05,1.42042949119283e-05,2.11864060326723e-05,5.43004391606585e-05
2.22187762875012e-05,1.83452717104077e-05,3.06382816290338e-05,7.12023296269427e-05
5.23786611052494e-06,4.04704562162242e-06,9.52675599711944e-06,1.88116677292668e-05
6.27762734254377e-06,4.83220207262356e-06,1.12708987724722e-05,2.23807281876395e-05
6.13061018040014e-06,5.00288773298547e-06,1.01754078289983e-05,2.13089057423839e-05
6.02728231959192e-06,4.79171008515191e-06,9.43180292613635e-06,2.02507953308802e-05
4.65788692871734e-06,3.76614329742144e-06,8.42179623770606e-06,1.68458264638448e-05
9.9373496118068e-06,8.31172879835197e-06,1.76837794848385e-05,3.59328578949973e-05
5.2487295089315e-06,3.47926697214102e-06,9.38558365525578e-06,1.81135801363283e-05
3.68344876364038e-06,3.17900082199478e-06,7.81249756181241e-06,1.46749471474476e-05
3.67732190122067e-06,2.84478484240629e-06,7.68720376452022e-06,1.42093105081472e-05
3.63907652388345e-06,2.90202496218629e-06,7.72415322350545e-06,1.42652547095752e-05
3.42943121528009e-06,2.84862832502923e-06,7.70032375018138e-06,1.39783832904907e-05
3.46258638281025e-06,2.95127413271387e-06,7.09320338456548e-06,1.35070639000896e-05
3.35095215586681e-06,2.90891049387618e-06,7.64838701911505e-06,1.3908249668858e-05
1.92354364289216e-05,1.60709097227591e-05,2.3540411753906e-05,5.88467579055867e-05
5.67725439106984e-06,4.45028858671442e-06,7.9665548544035e-06,1.80940978321878e-05
3.77917054812721e-06,3.26087541742563e-06,7.01397365584393e-06,1.40540196213968e-05
3.34923693022921e-06,2.96660391282837e-06,6.81821587925623e-06,1.31340567223138e-05
3.0280843195087e-06,2.47037556465196e-06,6.40679533786092e-06,1.19052552220216e-05
2.96142810122707e-06,2.5394140119257e-06,6.40338030289199e-06,1.19042224160448e-05
2.89146415462347e-06,2.52905478967291e-06,6.51542850603849e-06,1.19359474503349e-05
2.93592933115441e-06,2.5732824614214e-06,6.25388596225084e-06,1.17630977548266e-05
7.08256345649572e-05,0.000110793470820425,4.29594474599482e-05,0.00022457855284533
1.11443932558932e-05,6.75688415842254e-06,1.37892281136769e-05,3.16905055279927e-05
1.39076803962999e-05,1.05431069123312e-05,1.55384333485041e-05,3.99892206571352e-05
5.68090377128903e-06,4.63794065906874e-06,9.40382155560921e-06,1.9722665985967e-05
4.92202438394984e-06,3.99553143681183e-06,8.46232959687314e-06,1.73798854176348e-05
6.41016865536358e-06,3.90247562648922e-06,9.74770516991046e-06,2.00603494517633e-05
3.92463543081783e-06,3.48387317642841e-06,7.86893748150401e-06,1.52774460887502e-05
4.90701852895743e-06,3.84047628389567e-06,8.20349523255068e-06,1.69509900454038e-05
4.6603409743989e-06,4.39905861646522e-06,8.85052757493188e-06,1.7909927165796e-05
4.06204742253675e-06,3.92788048521144e-06,8.07962631516096e-06,1.60695542229091e-05
3.0747853101211e-06,2.60647007569253e-06,6.80134175180707e-06,1.24825971376207e-05
0.000166942432062424,9.45526133401058e-05,0.000119256729043963,0.000380751774446493
2.2751985513401e-05,2.54648285993845e-05,2.77954054036001e-05,7.60122195163856e-05
8.2779839586993e-06,5.12633745866718e-06,1.23190515969585e-05,2.57233730143249e-05
4.86062030971279e-06,3.48186649742982e-06,8.83947802338768e-06,1.71819648305303e-05
5.73161366929191e-06,5.06870551672316e-06,1.05400857984599e-05,2.13404049844749e-05
8.23263119241154e-06,8.28456474889597e-06,1.36735221197978e-05,3.01907180611053e-05
5.31432331644383e-06,4.97971537267386e-06,9.63508443836703e-06,1.99291231274847e-05
6.71627516483661e-06,5.44590961088485e-06,9.66391361174216e-06,2.18260983874636e-05
1.77859554765641e-05,1.26040921103928e-05,2.67229046421541e-05,5.71129522291111e-05
5.34571144776504e-06,4.51810861386266e-06,9.9073461037126e-06,1.97711661653403e-05
3.96791525490307e-06,2.8843232737843e-06,7.54998490701897e-06,1.44022234357063e-05
1.37957719359823e-05,7.3483775348202e-06,1.45065124858473e-05,3.56506619566497e-05
4.91576324798532e-06,3.22427683142073e-06,7.81325079307623e-06,1.59532908724823e-05
5.56949341499739e-06,3.8403097129952e-06,8.97918881063595e-06,1.83889919386285e-05
4.75865577240191e-06,3.12381058925631e-06,7.69565005273163e-06,1.55781164143898e-05
4.05113800554107e-06,3.01958776443665e-06,8.14234745832733e-06,1.5213073228305e-05
3.4821041423649e-06,2.76199897654115e-06,7.16408194393619e-06,1.34081850628422e-05
3.54372019576241e-06,2.69728088965437e-06,7.09585757992758e-06,1.33368586653444e-05
2.12041796871229e-05,2.96911710575218e-05,2.52091577882982e-05,7.61045085329429e-05
9.07292315218968e-06,6.22820341723438e-06,1.20384389865318e-05,2.73395655559559e-05
1.28043523459233e-05,9.04218738117013e-06,1.51907262451121e-05,3.70372659722055e-05
1.27047393824138e-05,9.38350364337408e-06,1.38529494037283e-05,3.59411924295161e-05
8.47049224603725e-06,4.42178193991542e-06,1.0200813774691e-05,2.30930879606436e-05
4.23691800855266e-06,3.19646631280494e-06,8.07728024563374e-06,1.55106645669913e-05
6.19170084762834e-06,4.05186344441693e-06,9.26497659138333e-06,1.95085408834286e-05
4.93059996987454e-06,3.26658186792838e-06,7.53877233904412e-06,1.5735954176847e-05
3.86449426965087e-06,2.89221199227261e-06,7.12995252371367e-06,1.38866587856371e-05
5.11774905947676e-06,3.30067955984769e-06,8.13760567719321e-06,1.65560342965177e-05
4.16313112138622e-05,6.30033035349251e-05,4.38731768612006e-05,0.000148507791609988
7.65577932719945e-06,5.39970473313982e-06,9.19911345843729e-06,2.22545975187766e-05
1.2939115634322e-05,1.18307572645784e-05,1.41156396474505e-05,3.88855125463509e-05
1.58005153887151e-05,9.43653420339675e-06,1.20499116615415e-05,3.72869612536533e-05
3.70139272238299e-05,2.31859766297147e-05,2.50652514027724e-05,8.5265155256317e-05
4.53765900765519e-05,3.38976634467783e-05,3.65689407538342e-05,0.000115843194277164
2.11649236579117e-05,1.17711624211679e-05,1.80019291048842e-05,5.09380151839638e-05
0.000104495291754613,2.9155551017783e-05,5.55212342809253e-05,0.000189172077053322
5.12428293283309e-05,1.97979901206321e-05,3.8475802706351e-05,0.000109516622155314
1.92504410260363e-05,1.45449742036009e-05,1.71996244434353e-05,5.09950396730725e-05
1.16132900345572e-05,7.43795358445977e-06,1.11978386198209e-05,3.02490822388378e-05
9.44905316681162e-05,9.54021551986617e-05,8.09736305747744e-05,0.000270866317441552
3.49982745954213e-05,2.29256346226601e-05,4.65017481810156e-05,0.000104425657399097
1.62055334504698e-05,1.18146828727689e-05,1.83607698145847e-05,4.63809861378233e-05
4.65810491278425e-06,3.83416082161099e-06,9.74105338651953e-06,1.82333191209148e-05
5.23231864159118e-06,3.06557039005658e-06,8.90869457087828e-06,1.72065836025261e-05
5.60908928319185e-06,5.1120671576452e-06,9.7323308626813e-06,2.04534873035184e-05
6.20547185224875e-06,4.63600280507672e-06,9.05735491391003e-06,1.98988295712355e-05
1.58198509396677e-05,9.43460064447541e-06,1.4005576000474e-05,3.92600275846171e-05
4.64522475430437e-06,3.75534550423919e-06,8.27314204137722e-06,1.66737122999208e-05
1.21505282453731e-05,9.23772970583273e-06,1.44770059502739e-05,3.58652639014797e-05
1.28569313935629e-05,1.19510489867642e-05,1.73504011057021e-05,4.21583814860292e-05
5.15805332146256e-06,4.66066907099809e-06,9.00857827083384e-06,1.88273006632945e-05
3.88156986991887e-06,2.86487521998282e-06,7.3768806398539e-06,1.41233257297556e-05
3.15452983464616e-06,2.61123402432841e-06,6.86173487238265e-06,1.26274987313572e-05
2.4362804791026e-05,2.07293667634938e-05,2.37595913856267e-05,6.88517629401465e-05
6.25965387943899e-06,4.1056931613003e-06,1.05409291757023e-05,2.09062762164416e-05
4.39775607348722e-06,2.921066664616e-06,8.14924438615857e-06,1.54680671242618e-05
3.88657879226332e-06,2.86246816353042e-06,7.68600627031955e-06,1.44350532261133e-05
4.27132770008886e-06,2.85441516839084e-06,7.95063590737637e-06,1.50763787758561e-05
4.25165136721464e-06,3.29548682111465e-06,7.64021182009261e-06,1.51873500084219e-05
4.7976388773654e-06,3.31700339811652e-06,8.86472416827086e-06,1.69793664437528e-05
4.10344601909295e-06,2.91978676169067e-06,7.713724579118e-06,1.47369573599016e-05
4.06714569232173e-06,3.14342062254394e-06,8.45300461847847e-06,1.56635709333441e-05
4.01558811914928e-06,2.99716259180965e-06,8.03058412437418e-06,1.50433348353331e-05
3.68136745483442e-06,2.91461754504111e-06,7.73443437065412e-06,1.43304193705297e-05
4.0985760323837e-06,2.78776377433871e-06,7.77277479579343e-06,1.46591146025158e-05
7.92332435009062e-06,5.19894481867156e-06,1.00121364082816e-05,2.31344055770438e-05
9.18578666714102e-06,5.67871566882593e-06,1.05660622995331e-05,2.54305646355e-05
4.88976158140955e-06,3.19204826311276e-06,8.03495795085187e-06,1.61167677953742e-05
4.0339591870437e-06,2.7875195135331e-06,7.80169722742672e-06,1.46231759280035e-05
5.90263171557455e-06,4.19120937526941e-06,9.78435846088853e-06,1.98781995517325e-05
3.7850129203316e-06,2.91528105251229e-06,7.5282921879109e-06,1.42285861607548e-05
8.53609373140282e-06,5.96017704252555e-06,8.70889430400391e-06,2.32051650779323e-05
9.044782490547e-06,8.53678828779457e-06,1.21189355101924e-05,2.9700506288534e-05
7.42100203331913e-06,4.92160723333093e-06,1.06644543667621e-05,2.30070636334121e-05
4.74599350012216e-06,3.59748076231545e-06,8.51098719728219e-06,1.68544614597198e-05
3.89710233097715e-06,2.86814164537074e-06,7.57379489870361e-06,1.43390388750515e-05
5.64072429253722e-06,3.55210506401877e-06,9.24663704209489e-06,1.84394663986509e-05
3.98417976910909e-06,3.0050372050808e-06,7.56114583567496e-06,1.45503628098649e-05
3.72990605546605e-06,2.81550066475037e-06,7.18876325526965e-06,1.37341699754861e-05
3.62642768100789e-06,2.86894618194179e-06,7.52173077602486e-06,1.40171046389745e-05
3.55606203507321e-06,2.74315538476505e-06,7.11227888700678e-06,1.3411496306845e-05
3.94740908196667e-06,3.1637035278979e-06,7.85502275985968e-06,1.49661353697243e-05
9.01784590354741e-06,6.41312606314032e-06,1.16367402041288e-05,2.70677121708165e-05
8.53101406890505e-06,5.83014884382784e-06,1.14330733168894e-05,2.57942362296222e-05
7.28681685003996e-06,5.01894860339645e-06,1.15349824557253e-05,2.38407479091617e-05
4.87071306937783e-06,6.53013077839881e-06,1.1301113842538e-05,2.27019576903146e-05
4.95073033357791e-06,4.1498415993824e-06,9.93860199387476e-06,1.90391739268351e-05
4.44055673531661e-06,3.54883452896012e-06,8.77734325994055e-06,1.67667345242173e-05
3.13810105580696e-06,2.37580098036382e-06,6.74983358413313e-06,1.22637356203039e-05
3.06101894635688e-06,2.42098881213205e-06,6.9089928963175e-06,1.23910006548064e-05
5.44460881764573e-06,4.02513706851779e-06,9.30502965241941e-06,1.87747755385829e-05
4.49260033018463e-06,3.47044520511147e-06,8.69978411072836e-06,1.66628296460245e-05
2.86266672385292e-06,2.33605952192637e-06,6.42444412058315e-06,1.16231703663624e-05
3.92324419040797e-06,2.82144067918879e-06,7.13490864789218e-06,1.38795935174889e-05
5.55223279470105e-06,5.99001509109648e-06,1.01966327398613e-05,2.17388806256588e-05
4.31883569562424e-06,3.43646830141409e-06,8.82210846065758e-06,1.65774124576959e-05
3.50935387132455e-06,2.82155457646789e-06,7.54454994539973e-06,1.38754583931922e-05
4.2428936368359e-06,3.13784597087833e-06,8.59969948759195e-06,1.59804390953062e-05
4.41185860645841e-06,3.56322344218945e-06,8.84839241702647e-06,1.68234744656743e-05
3.58478045086022e-06,2.80627155515962e-06,8.05541021593912e-06,1.4446462221959e-05
4.14777831680418e-06,3.19942531177787e-06,8.88367649414625e-06,1.62308801227283e-05
3.07775986005038e-06,2.48515434652949e-06,6.68137539764489e-06,1.22442896042248e-05
4.59912294275559e-06,3.51168689607737e-06,9.06662575961607e-06,1.7177435598449e-05
3.31718828630006e-06,2.57841231670438e-06,7.34903419137323e-06,1.32446347943777e-05
3.51251903589269e-06,2.83634701187128e-06,7.25682261722524e-06,1.36056886649892e-05
3.41709415077374e-06,2.67998372630086e-06,7.63350561111558e-06,1.37305834881902e-05
3.40450849358431e-06,2.61692389434309e-06,7.33408930024839e-06,1.33555216881758e-05
3.40935783439755e-06,2.64938979139908e-06,7.92641395415381e-06,1.39851615799504e-05
3.95773319325791e-06,3.18965652185278e-06,8.42152495902241e-06,1.55689146741331e-05
4.50886679643226e-06,4.48029934641865e-06,8.69872159882442e-06,1.76878877416753e-05
3.69280682248185e-06,3.10799283559173e-06,7.88911040331478e-06,1.46899100613884e-05
4.54739977890679e-06,3.72725381082868e-06,9.57434195082241e-06,1.78489955405579e-05
3.9427121182782e-06,2.93190277369047e-06,7.71320506871103e-06,1.45878199606797e-05
3.78693629133584e-06,2.75538703176802e-06,7.8769939007629e-06,1.44193172238668e-05
3.06130878885145e-06,2.47415424197659e-06,6.68970748507525e-06,1.22251705159033e-05
3.39180709704539e-06,2.55341263732651e-06,7.27264873198713e-06,1.3217868466359e-05
3.19965249462262e-06,2.55890065148164e-06,7.24620220280886e-06,1.30047553489131e-05
3.08255226247488e-06,2.6162637859935e-06,6.8324397207621e-06,1.25312557692305e-05
4.3832671738478e-06,3.60349171520828e-06,8.29214884326263e-06,1.62789077323187e-05
1.33790211537209e-05,9.57381871393372e-06,1.67278115895612e-05,3.96806514572158e-05
4.17598542810544e-06,2.88666360359344e-06,8.70184143156617e-06,1.5764490463265e-05
4.08471082778205e-06,2.90613737764151e-06,8.01473135574567e-06,1.50055795611692e-05
2.85822049126243e-05,3.77191685493023e-05,3.46536850459123e-05,0.000100955058507839
1.71245311014834e-05,1.12426782401743e-05,2.78263440211259e-05,5.61935533627835e-05
3.964008759957e-06,3.12538410944418e-06,7.41300427804599e-06,1.45023971474472e-05
9.22367076171598e-06,9.37722404777878e-06,2.19289393382376e-05,4.05298341477323e-05
9.91519626418273e-06,6.5490040007087e-06,1.214189252836e-05,2.86060927932514e-05
5.45718124147061e-06,4.39007149821375e-06,8.79597946454263e-06,1.8643232204227e-05
5.24976690967723e-06,3.66231326277457e-06,7.74154662665033e-06,1.66536267991021e-05
4.74566018610668e-06,3.53548392936259e-06,7.63225350964657e-06,1.59133976251158e-05
1.20941335095224e-05,9.53935380077593e-06,1.29683568338406e-05,3.4601844144139e-05
6.53666409239176e-05,4.10551423118637e-05,5.45637156368043e-05,0.000160985498872586
1.90321759816684e-05,2.24912203507454e-05,2.37023100186374e-05,6.52257063510511e-05
4.54683123772888e-06,3.65531372348503e-06,7.77851733855914e-06,1.5980662299773e-05
4.16230241960971e-06,3.88669944857092e-06,8.56202073423326e-06,1.66110226024139e-05
3.87074084878627e-06,3.3354332194806e-06,6.94618045114135e-06,1.41523545194082e-05
4.43019560065272e-06,4.08439141447454e-06,8.52287349381241e-06,1.70374605089397e-05
4.33803324966408e-06,3.41065964789186e-06,7.83455585611352e-06,1.55832487536695e-05
4.57950311845234e-06,3.33680390026252e-06,8.15046116464775e-06,1.60667681833626e-05
3.75547858204502e-06,3.04098807678469e-06,7.31494906040163e-06,1.41114157192313e-05
4.13753320672512e-06,3.31981780558405e-06,7.39060902093297e-06,1.48479600332421e-05
4.28501147315842e-06,3.72844141771785e-06,8.00842187769939e-06,1.60218747685757e-05
3.874296210961e-06,3.03192371415922e-06,7.24812938703382e-06,1.4154349312154e-05
8.39891040101311e-06,7.91778686626391e-06,1.18432608546652e-05,2.81599581219422e-05
9.58735387610289e-06,5.94671773118503e-06,9.67898666531337e-06,2.52130582726013e-05
8.61395402369026e-06,9.47965344203039e-06,1.43697822074731e-05,3.24633896731938e-05
7.73977275950001e-06,2.51341677974805e-05,1.71897458753284e-05,5.00636864323089e-05
9.21700886963692e-06,8.59862286682815e-06,1.17220780700252e-05,2.95377098064903e-05
8.0995117746447e-06,4.5478984099503e-06,9.61679014833117e-06,2.22642003329262e-05
8.59783100143511e-06,5.72133742898697e-06,9.3302726479367e-06,2.36494410783588e-05
5.36377270634491e-06,3.88450255059424e-06,7.91285179694813e-06,1.71611270538873e-05
9.19584630357001e-06,5.43756783400383e-06,9.88758191651927e-06,2.45209960540931e-05
7.2138152041729e-06,5.1585705762727e-06,1.01616067288025e-05,2.25339925092481e-05
1.00745086443426e-05,4.44296196010218e-06,8.62486698470404e-06,2.31423375891488e-05
5.77842818936799e-06,3.35421539412736e-06,9.17494745139261e-06,1.8307591034888e-05
6.12270800470538e-06,3.60544070487467e-06,8.54407420996904e-06,1.82722229195491e-05
9.61748102179603e-06,5.1887750486044e-06,1.02543348975066e-05,2.5060590967907e-05
2.23687703806516e-05,3.35722728304487e-05,3.4094492076137e-05,9.00355352872373e-05
4.10972863956517e-06,3.40841729341206e-06,7.90931000875343e-06,1.54274559417307e-05
5.07029949793721e-06,4.09927626562754e-06,8.51044680609852e-06,1.76800225696633e-05
8.13269558870848e-06,1.35481490681568e-05,1.59723717335222e-05,3.76532163903875e-05
7.14149156604945e-06,7.72825989519357e-06,1.49382621370139e-05,2.9808013598257e-05
9.3225498832306e-06,6.6972915738263e-06,1.07373893559681e-05,2.6757230813025e-05
4.74871392324448e-06,4.43563758680482e-06,8.46489106853607e-06,1.76492425785854e-05
3.67782714966276e-06,3.13714660982785e-06,7.50533218892067e-06,1.43203059484113e-05
4.58986500721594e-06,4.71059195305336e-06,8.62656908717125e-06,1.79270260474405e-05
4.4849522469541e-06,4.05675225031804e-06,8.0019861106881e-06,1.65436906079602e-05
5.45930708885022e-06,3.94893740349025e-06,9.45236532998381e-06,1.88606098223243e-05
3.66007037661004e-06,2.94389914912019e-06,7.37896160122687e-06,1.39829311269571e-05
5.68737827546584e-06,4.3289213837321e-06,9.80578203449389e-06,1.98220816936918e-05
4.50584218487382e-06,4.39884239331652e-06,8.57298105216957e-06,1.74776656303599e-05
4.19904976506141e-06,3.10926315919801e-06,7.81717605723979e-06,1.51254889814992e-05
3.55166031862771e-05,9.66876329009262e-05,2.71995837269889e-05,0.000159403819814192
5.40315346190988e-06,3.97469586828306e-06,1.0006756941564e-05,1.9384606271757e-05
7.918852204491e-06,4.97348670328813e-06,1.01205320294961e-05,2.30128709372752e-05
7.45027183735692e-05,3.84113177082271e-05,4.76209202200613e-05,0.000160534956301858
1.60953885555658e-05,1.01512460190207e-05,2.25133596146834e-05,4.87599941892699e-05
4.3021171113564e-06,3.1802368888266e-06,8.71992667919124e-06,1.62022806793742e-05
8.74168533200034e-05,0.000181253865787198,6.5195860958439e-05,0.00033386658006564
9.48095915244161e-06,5.78737791471518e-06,1.13636438756595e-05,2.66319809428163e-05
7.09823192544551e-06,3.79552828226662e-06,8.86280770878555e-06,1.97565679164977e-05
6.3569415013456e-06,3.73573134086426e-06,9.81492030885382e-06,1.99075931510637e-05
1.54435549097913e-05,8.40146904960659e-06,1.70535998957088e-05,4.08986238551067e-05
1.22439810520786e-05,8.07256125098477e-06,1.37910402271888e-05,3.41075825302522e-05
1.90650558668861e-05,1.16939097535014e-05,1.83105964896569e-05,4.90695621100444e-05
1.39678054628778e-05,6.30036508362797e-06,1.06517978598937e-05,3.09199684063995e-05
4.2659778159517e-05,1.91499601826018e-05,3.13133230055851e-05,9.31230613477038e-05
4.26553316970556e-06,3.16952560984524e-06,8.54224570641353e-06,1.59773044859643e-05
3.68897490806488e-06,2.77628944201221e-06,8.01254652306685e-06,1.44778108731439e-05
4.17361370063344e-06,2.87820664715884e-06,8.16351816283071e-06,1.5215338510623e-05
3.75041337281554e-06,2.80269680843391e-06,7.83861155188697e-06,1.43917217331364e-05
4.53673774394415e-06,3.78809220587484e-06,8.58386374131214e-06,1.69086936911311e-05
3.97894544073375e-06,2.68728183898107e-06,8.14505350447946e-06,1.48112807841943e-05
3.7017502296782e-06,2.78676369133871e-06,7.94054795827902e-06,1.44290618792959e-05
1.00060594512211e-05,5.7179157968323e-06,9.98350800941711e-06,2.57074832574705e-05
3.93003802558734e-06,2.74794722734148e-06,8.4567937529613e-06,1.51347790058901e-05
7.67420273256043e-05,5.26998001634891e-05,7.8964984690701e-05,0.000208406812179794
0.000645653408059487,0.0017583241317831,0.00200183781349031,0.00440581535333289
5.12094024081963e-05,7.12092728073847e-05,7.59468767622263e-05,0.000198365551977807
0.000393524009795612,0.00161502061122723,0.00136018295318726,0.00336872757421009
0.000164341935776249,0.00051373135053968,0.000378564512125044,0.00105663779844097
7.68377535227667e-05,9.14319018720033e-05,6.2914493140025e-05,0.000231184148534795
1.6796302196686e-05,1.23668844366085e-05,2.27820688786029e-05,5.19452555118974e-05
6.40897521554885e-05,0.000198842992932681,6.36981232695048e-05,0.000326630868357674
9.79023681159571e-06,7.16956790005263e-06,1.36781875426155e-05,3.06379922542639e-05
6.46352141585717e-06,6.43287039781566e-06,1.18301904916614e-05,2.47265823053342e-05
9.19672256819888e-06,6.63097208754706e-06,1.22918617436782e-05,2.81195563994241e-05
6.38960518407836e-06,5.25437279492205e-06,1.12080248494687e-05,2.28520028284691e-05
8.59992835116238e-06,6.32927317552817e-06,1.19952051450053e-05,2.69244066716958e-05
9.26739734407263e-06,7.83329026545404e-06,1.41180658929514e-05,3.1218753502478e-05
1.18208536643299e-05,1.46938527844457e-05,2.65413294726804e-05,5.3056035921456e-05
5.95674407770721e-06,1.15795028564129e-05,2.04092825144626e-05,3.79455294485827e-05
1.36079132503572e-05,1.57577977691236e-05,1.88964013559916e-05,4.82621123754724e-05
8.54956538877296e-06,8.70058554940772e-06,1.59507496972169e-05,3.32009006353976e-05
6.19624817139336e-06,6.59956689539707e-06,1.21734894270024e-05,2.49693044937928e-05
6.12721633679593e-06,7.02757990639049e-06,1.24158577720403e-05,2.55706540152267e-05
2.00232143499227e-05,2.68184666515379e-05,2.68921867714489e-05,7.37338677729094e-05
1.45475996511737e-05,1.91999654636657e-05,1.97115241918603e-05,5.34590893066996e-05
9.91821440219865e-06,2.58437878927636e-05,2.95246535273842e-05,6.52866558223464e-05
1.17825764987655e-05,1.93510845114387e-05,2.12350809843828e-05,5.2368741994587e-05
9.61200932273094e-06,2.1377910435381e-05,2.25145471860399e-05,5.35044669441518e-05
9.34062947915942e-06,1.23020895379266e-05,1.60928766539029e-05,3.77355956709889e-05
9.92336750918167e-06,9.71384661339032e-06,1.56454458625484e-05,3.52826599851204e-05
1.7179657720925e-05,1.94209463430266e-05,2.23803494353715e-05,5.89809534993231e-05
9.01911972584998e-06,8.99677594008493e-06,1.46562560347493e-05,3.26721517006842e-05
2.12757194787667e-05,1.65997069511396e-05,2.85536584621599e-05,6.64290848920662e-05
7.8307437272963e-06,7.43878636469466e-06,1.33493010201201e-05,2.86188311121111e-05
8.86455721751126e-06,7.39085765729943e-06,1.48209583019729e-05,3.10763731767836e-05
7.83112483375254e-06,1.0896440404852e-05,1.59874876655255e-05,3.471505290413e-05
5.55138324176276e-06,5.12845662203016e-06,9.67137531013709e-06,2.035121517393e-05
4.93198405298969e-06,4.63064513964728e-06,9.65079785431962e-06,1.92134270469566e-05
5.60013097983446e-06,5.89458337148834e-06,1.12454066457224e-05,2.27401209970452e-05
4.52803819250785e-06,4.16591820404601e-06,9.02507181565723e-06,1.77190282122111e-05
1.70111573258087e-05,2.48510769984726e-05,2.89185474771438e-05,7.0780781801425e-05
1.72503601596784e-05,1.39356535386192e-05,2.60165896249886e-05,5.72026033232861e-05
1.10110207112831e-05,1.28372708017745e-05,2.02637125531675e-05,4.4112004066225e-05
6.15835567760157e-06,6.48541364499386e-06,1.22356988799281e-05,2.48794682025236e-05
9.97100826842344e-06,1.07613950234488e-05,1.65749174365095e-05,3.73073207283818e-05
2.46818718602848e-05,1.66914889999832e-05,2.93002058830088e-05,7.06735667432769e-05
1.43849796520936e-05,2.81083666280776e-05,2.05741725273966e-05,6.30675188075677e-05
6.07295924125446e-06,9.90647110904261e-06,1.04643921459007e-05,2.64438224961978e-05
6.15867241587014e-06,9.68532592826709e-06,1.11755254410369e-05,2.70195237851741e-05
6.98111021849312e-06,9.16888222463011e-06,1.21581581041478e-05,2.8308150547271e-05
7.30498286214775e-06,9.31479833687484e-06,1.28042543919648e-05,2.94240355909874e-05
3.55638300446748e-05,2.70543335385473e-05,3.13908792690778e-05,9.40090428522999e-05
2.710394602569e-05,2.66637728267417e-05,4.80092775121076e-05,0.000101776996364539
5.63550767688266e-06,1.03993797526735e-05,1.01522408679073e-05,2.61871282974635e-05
7.71889146407943e-06,1.68651264433858e-05,1.3437630902112e-05,3.80216488095772e-05
7.95808140298036e-06,2.46706810349581e-05,1.59731632438358e-05,4.86019256817742e-05
5.97638647630139e-06,1.41128333472019e-05,1.166806450964e-05,3.17572843331433e-05
6.1422945864322e-06,1.24985597948696e-05,1.1080748496126e-05,2.97216028774277e-05
7.48972165497633e-06,1.00490832837244e-05,1.12119308918903e-05,2.8750735830591e-05
7.59781556883769e-06,1.06646389393728e-05,1.00242915322722e-05,2.82867460404828e-05
8.81841095104069e-06,1.26820557480904e-05,1.26477050438299e-05,3.4148171742961e-05
6.63015764571737e-06,9.62641965873834e-06,1.14079569236106e-05,2.76645342280663e-05
5.7438731232227e-06,9.61012850256226e-06,1.01789514706181e-05,2.5532953096403e-05
4.70418434673165e-06,6.22079093372644e-06,9.31348588632858e-06,2.02384611667867e-05
8.28725738870921e-06,1.46079625696063e-05,1.66864163270156e-05,3.95816362853311e-05
4.94337571208278e-06,8.08512695558077e-06,9.72206699399147e-06,2.2750569661655e-05
5.66386616818505e-06,8.93620367347588e-06,1.0083444793197e-05,2.46835146348579e-05
6.51033522189104e-06,9.50716358861456e-06,1.22224087150448e-05,2.82399075255504e-05
6.64174985676867e-06,6.86083008985972e-06,1.0166357687472e-05,2.36689376341004e-05
5.81334164482647e-06,7.27302847722105e-06,1.03845873896571e-05,2.34709575117046e-05
5.37966206235317e-06,7.5984593957638e-06,1.02973496280923e-05,2.32754710862093e-05
5.39537910947826e-06,6.87716985039265e-06,9.17454402553875e-06,2.14470929854097e-05
4.34862125394316e-06,6.01538703552132e-06,7.95028754151516e-06,1.83142958309796e-05
6.15017939174929e-06,5.85948078043251e-06,9.58192220321366e-06,2.15915823753955e-05
6.2677391541498e-06,1.19840943145163e-05,1.10123533028148e-05,2.9264186771481e-05
4.32884855809479e-06,6.37749106183157e-06,8.25502658890832e-06,1.89613662088347e-05
3.9000247647855e-06,4.60828947426182e-06,8.19155903179173e-06,1.66998732708391e-05
5.37393568461726e-06,8.3743273774293e-06,9.91983021527292e-06,2.36680932773195e-05
4.52581658349403e-06,6.83662744872888e-06,8.66092976611954e-06,2.00233737983424e-05
3.99890494787106e-06,3.06312785495322e-06,7.53379992214866e-06,1.45958327249729e-05
7.23380960973208e-06,1.49367890683482e-05,1.17533233058681e-05,3.39239219839485e-05
6.13770846051642e-06,1.09731106911053e-05,1.00765376688841e-05,2.71873568205059e-05
5.55335799150936e-06,7.03133911486152e-06,1.01786766633165e-05,2.27633737696874e-05
5.22014460959111e-06,6.286672451913e-06,9.53799315030518e-06,2.10448102118093e-05
8.60101531774494e-06,7.98910758656186e-06,1.18019843452051e-05,2.83921072495118e-05
7.13838394610332e-06,1.01514694965591e-05,9.96324880672025e-06,2.72531022493827e-05
3.29404267801932e-06,2.79041172820533e-06,7.00279541725899e-06,1.30872498234836e-05
2.4193800772805e-05,3.2090614781884e-05,3.00611231083604e-05,8.63455386630494e-05
6.42038789991175e-06,6.2300586484947e-06,1.02589190970807e-05,2.29093656454872e-05
4.17703657194473e-06,3.27436613384813e-06,7.96682599592806e-06,1.54182287017209e-05
4.24734387984106e-06,3.5438709214469e-06,7.73012254968056e-06,1.55213373509685e-05
4.11842353093743e-06,3.23331024739967e-06,7.49355484618745e-06,1.48452886245246e-05
3.41390381219597e-06,2.99841021486746e-06,7.2137331041283e-06,1.36260471311917e-05
7.88114537974729e-06,9.43708126606175e-06,1.09622647126586e-05,2.82804913584677e-05
3.62711733240862e-06,3.21039146825872e-06,7.34376453751864e-06,1.4181273338186e-05
1.57983447045685e-05,1.21774093865285e-05,2.21214415308346e-05,5.00971956219316e-05
5.63359340737611e-06,3.90849943529107e-06,8.55154225402087e-06,1.8093635096688e-05
7.02209255889252e-06,3.4553961473473e-06,8.38620704046177e-06,1.88636957467016e-05
4.95242073540588e-06,3.38361968318545e-06,8.89947839106667e-06,1.7235518809658e-05
6.86554545158019e-06,4.04659290017445e-06,9.38513614672075e-06,2.02972744984754e-05
6.85321017956137e-06,4.14997455252992e-06,8.82901019798648e-06,1.98321949300778e-05
4.45753034142293e-06,3.02723154375903e-06,7.25313719780299e-06,1.4737899082985e-05
3.4165829564457e-06,2.8114802964187e-06,7.08804266090649e-06,1.33161059137709e-05
3.8930777416757e-06,2.87239869908475e-06,7.44722762694514e-06,1.42127040677056e-05
4.38795552330372e-06,3.05025878380069e-06,7.99117782465281e-06,1.54293921317572e-05
4.68161318372936e-06,3.07998442205977e-06,8.20325682348344e-06,1.59648544292726e-05
9.39205143455598e-06,5.11614824139152e-06,1.05671876770232e-05,2.50753873529707e-05
7.94289309439969e-06,5.58032187146787e-06,1.03072256477709e-05,2.38304406136385e-05
1.00107612554747e-05,6.59165111204632e-06,8.86876878059639e-06,2.54711811481174e-05
5.89459651545547e-06,4.69647254514342e-06,9.74860734311086e-06,2.03396764037097e-05
4.21630751259545e-06,3.22429089318996e-06,7.92279996066763e-06,1.5363398366453e-05
3.88566426582903e-06,2.90036854272483e-06,7.34623019016508e-06,1.41322629987189e-05
5.73190776059146e-06,4.07638547233869e-06,8.69540445563669e-06,1.85036976885668e-05
1.19985544346214e-05,7.54309355940801e-06,1.29784544617208e-05,3.25201024557501e-05
4.94250019869516e-06,3.71520338634261e-06,7.93260265673596e-06,1.65903062417737e-05
3.39088639697128e-06,2.74737775719219e-06,7.20339008905863e-06,1.33416542432221e-05
1.80892684358625e-05,1.06438444759536e-05,1.42717461932581e-05,4.30048591050743e-05
5.02408933742576e-06,3.83744532883649e-06,8.51933839987987e-06,1.73808730661421e-05
5.78203933996904e-06,3.50021137364383e-06,8.77401121103473e-06,1.80562619246476e-05
4.94863206175332e-06,3.42591775831849e-06,8.22612341133213e-06,1.66006732314039e-05
5.31213771955367e-06,3.57106622338622e-06,8.02044202589198e-06,1.69036459688319e-05
4.63235549153472e-06,2.98348367055757e-06,7.45854870169166e-06,1.5074387863784e-05
3.61934875386659e-06,2.71617146013985e-06,7.41552326674549e-06,1.37510434807519e-05
3.33452491819351e-06,2.61045246485725e-06,7.61292136721688e-06,1.35578987502676e-05
4.51497276110282e-06,3.25811155635912e-06,8.30276478771255e-06,1.60758491051745e-05
5.77600246270996e-06,3.16891959176061e-06,7.72766263103646e-06,1.6672584685507e-05
4.52472269207651e-06,3.21998310735177e-06,7.76542932899942e-06,1.55101351284277e-05
4.95126405125587e-06,3.14630482685153e-06,7.95704928208332e-06,1.60546181601907e-05
4.75080456912235e-06,3.02742220182887e-06,8.06354502947424e-06,1.58417718004255e-05
4.99553883583967e-06,3.17741325056975e-06,8.28734023944909e-06,1.64602923258585e-05
6.68247822669614e-06,3.9746715884814e-06,8.45088864802618e-06,1.91080384632037e-05
1.16691130283513e-05,1.28435766557593e-05,2.95293378480305e-05,5.40420275321411e-05
1.07384651867988e-05,7.37194770605357e-06,1.56448254570162e-05,3.37552383498685e-05
1.23451543898167e-05,4.41330262953992e-05,2.85717822138459e-05,8.50499628990617e-05
2.11954179232689e-05,4.79253378397982e-05,2.31655628770662e-05,9.22863186401332e-05
3.97508758352103e-05,9.28820507688974e-05,7.30644640719815e-05,0.000205697390676089
0.000413168241019223,0.000361303100785176,0.000566449941656009,0.00134092128346041
0.000370463976987741,0.000499867901506485,0.000587006504557738,0.00145733838305196
0.000147634944967023,0.000230549192803767,0.000192657175317968,0.000570841313088758
0.000220640189900268,0.00023859519957,0.000266996521107843,0.00072623191057811
0.000165585082927158,0.000245208026228873,0.000176568645691467,0.000587361754847498
1.4696788912749e-05,1.3303433678454e-05,2.30722487412008e-05,5.10724713324039e-05
4.84664082563367e-06,4.20194532053696e-06,7.26033142184026e-06,1.63089175680109e-05
8.63141433343112e-06,5.8730769878712e-06,1.32214125708935e-05,2.77259038921958e-05
1.1438392473968e-05,1.06453843907457e-05,1.31878322964909e-05,3.52716091612046e-05
3.50436803495021e-06,3.15636864148768e-06,6.73841494527989e-06,1.33991516217178e-05
3.55212779653322e-06,3.14895242504928e-06,6.69951960930993e-06,1.34005998308924e-05
7.9890216386295e-06,6.69816531863794e-06,1.07873293814773e-05,2.54745163387447e-05
1.10634277804655e-05,6.89481793413139e-06,1.1073468456199e-05,2.9031714170796e-05
4.13244466136864e-06,3.53249782282912e-06,7.27166811291328e-06,1.4936610597111e-05
4.97755752945939e-06,1.42835035670567e-05,9.43358288496185e-06,2.86946439814779e-05
3.53606423107457e-06,3.03707120439927e-06,7.61165629959077e-06,1.41847917350646e-05
3.49222802921731e-06,2.90279234470255e-06,6.65922660714864e-06,1.30542469810685e-05
3.15204884153149e-06,2.81142826760565e-06,6.86443302967681e-06,1.28279101388139e-05
1.98760480657456e-05,1.85418765643936e-05,2.19252369191488e-05,6.0343161549288e-05
5.51856214138729e-06,4.10091318677681e-06,8.48196844744756e-06,1.81014437756117e-05
5.89874025568237e-06,3.74527017430411e-06,7.70993164979276e-06,1.73539420797792e-05
8.54267991246779e-06,5.06038164657254e-06,9.40653952779968e-06,2.300960108684e-05
5.57518703623928e-06,4.29961631530868e-06,8.52591858921638e-06,1.84007219407643e-05
7.37167132333151e-06,5.5526527414676e-06,9.816152860838e-06,2.27404769256371e-05
2.21136326457336e-05,1.61002652103097e-05,1.59142775779721e-05,5.41281754340155e-05
1.72222124569435e-05,2.77556076122127e-05,2.938090790034e-05,7.43587279694962e-05
1.52429289391555e-05,1.25628551400405e-05,2.20603621211278e-05,4.98661462003238e-05
1.35157689263177e-05,9.40808683407453e-06,2.24556459456124e-05,4.53795017060047e-05
2.2302417181432e-05,1.3380472467111e-05,2.86583309189656e-05,6.43412205675086e-05
1.55079702158211e-05,1.02754163734059e-05,2.52484664686825e-05,5.10318530579094e-05
1.96117956498794e-05,2.39252981511267e-05,3.823672679212e-05,8.1773820593126e-05
1.56152185317019e-05,1.23078928295879e-05,1.72281198642545e-05,4.51512312255444e-05
1.51215276102237e-05,1.32584951004131e-05,2.27140877272167e-05,5.10941104378535e-05
1.14905245264336e-05,1.01950025410759e-05,1.81271262375396e-05,3.9812653305049e-05
3.72049382682915e-06,3.92874359115993e-06,9.74033490626691e-06,1.7389572324256e-05
4.57562740639921e-06,4.62019692517058e-06,1.08662694761738e-05,2.00620938077436e-05
4.46984528276371e-06,4.64543105829313e-06,1.01703237407637e-05,1.92856000818206e-05
5.01810196719064e-06,4.79848621630206e-06,1.07083649946146e-05,2.05249531781073e-05
4.2294773871149e-06,4.59008061275586e-06,9.59960762882412e-06,1.84191656286949e-05
4.77033352122067e-06,3.95338608916906e-06,9.40119082848429e-06,1.8124910438874e-05
9.91632168464067e-06,9.55493895667596e-06,2.01166035565274e-05,3.95878641978441e-05
2.42753487847783e-05,2.83860848606254e-05,2.66680190768192e-05,7.93294527222229e-05
2.183972935426e-05,1.58974305130671e-05,1.98727850491417e-05,5.76099449164687e-05
3.87297153210877e-06,3.28521287853675e-06,8.18712224838787e-06,1.53453066590334e-05
3.91442081530563e-06,3.84192847056977e-06,8.42008262714803e-06,1.61764319130234e-05
3.54415610404485e-06,3.56745777456307e-06,7.99642733217221e-06,1.51080412107801e-05
3.86231871309464e-06,3.47440195710556e-06,8.20596054311233e-06,1.55426812133125e-05
3.30440498400576e-06,3.03398400179686e-06,7.63282347032063e-06,1.39712124561233e-05
2.09325245410513e-05,1.45777643433835e-05,2.2764408761571e-05,5.82746976460058e-05
3.32662133021374e-06,2.80075977316332e-06,7.38936833183583e-06,1.35167494352129e-05
3.2876881417255e-06,2.86802490922716e-06,7.33329635913525e-06,1.34890094100879e-05
3.37211177542848e-06,2.76100967704408e-06,7.28607502876144e-06,1.3419196481234e-05
3.35860581846768e-06,2.70655426642394e-06,6.85811169787601e-06,1.29232717827676e-05
3.14425618066157e-06,2.93567394216098e-06,7.14869839454761e-06,1.32286285173702e-05
3.2263743603269e-06,2.80191444084911e-06,7.23236278824237e-06,1.32606515894184e-05
3.08012821624476e-06,2.87407114938849e-06,7.09419680197934e-06,1.30483961676126e-05
3.26267338538015e-06,2.75722407290572e-06,7.23953163489101e-06,1.32594290931769e-05
3.16517983825792e-06,2.69815921245466e-06,6.79116926588639e-06,1.2654508316599e-05
7.73028749756303e-06,8.50750850396126e-06,1.38370199218281e-05,3.00748159233524e-05
4.18614634895955e-06,3.52004112902334e-06,8.92384635224822e-06,1.66300338302311e-05
3.59117873513814e-06,2.87903437846374e-06,7.41555092563783e-06,1.38857640392397e-05
3.35894065892275e-06,2.9565535853502e-06,6.69658347275596e-06,1.30120777170289e-05
3.29911952083692e-06,2.7543481527561e-06,6.99799566118119e-06,1.30514633347742e-05
3.20347248301938e-06,2.63996648060837e-06,6.53194043215481e-06,1.23753793957826e-05
3.09047448269338e-06,2.66182407695625e-06,6.63304976517787e-06,1.23853483248275e-05
3.29401619327716e-06,2.72428096978028e-06,7.0323147703973e-06,1.30506119334547e-05
3.1939053087458e-06,2.6673893523739e-06,6.71638982245733e-06,1.2577684483577e-05
3.12461333065172e-06,2.58604451579327e-06,6.6299097441472e-06,1.23405675905922e-05
3.26924623626381e-06,2.6814351576668e-06,7.04283525665963e-06,1.29935166505902e-05
3.24413793687355e-06,2.77167330753518e-06,7.11411118113478e-06,1.31299224255435e-05
3.19041835018492e-06,2.74176366657372e-06,7.12550415093474e-06,1.30576861676934e-05
3.16283309596779e-06,2.55971619501952e-06,7.09279842307809e-06,1.28153477140654e-05
3.31108193856801e-06,2.70692854464888e-06,6.82538570672882e-06,1.28433961899457e-05
4.34113693414287e-05,3.58116070121679e-05,4.45224285347152e-05,0.000123745404888312
4.41564425522737e-05,2.25336832627315e-05,5.31733594142925e-05,0.000119863485229298
3.96946857570947e-06,3.85257561816508e-06,8.43425525608042e-06,1.6256299449955e-05
5.06617329852931e-06,5.39891087464711e-06,9.19820407892878e-06,1.96632882521052e-05
1.11763743279914e-05,1.41401065099656e-05,1.89935340551614e-05,4.43100148931184e-05
9.0728271943456e-06,1.30517500351149e-05,2.02998071061598e-05,4.24243843356202e-05
1.69416289600606e-05,2.08765468073355e-05,3.57365841910108e-05,7.35547599584068e-05
2.32871628643167e-05,1.92299500101186e-05,4.26401745097735e-05,8.51572873842088e-05
3.7461121421837e-05,4.28141664410109e-05,9.83348048971496e-05,0.000178610092759998
3.80288920837996e-05,4.23430744671507e-05,0.000115262351874745,0.000195634318425695
6.27616699763222e-05,9.12362220889314e-05,0.000114263597226035,0.000268261489291288
4.10238636119301e-05,4.06962509938177e-05,5.55107934478351e-05,0.000137230908053583
1.03773214072431e-05,7.03603675587883e-06,1.24417094449047e-05,2.98550676080266e-05
3.05553279869311e-05,3.04670272917574e-05,2.50544643196029e-05,8.60768195982914e-05
3.68374565538345e-05,2.76861622761905e-05,3.90284967837725e-05,0.000103552115613797
1.22981357645496e-05,6.01780790381862e-06,1.09024370097148e-05,2.92183806780831e-05
4.54764425272316e-06,3.46563051042664e-06,8.29658775489337e-06,1.63098625180432e-05
4.43401241705095e-06,3.5492155532255e-06,7.91788551822861e-06,1.59011134885051e-05
5.76778081245365e-06,4.06015722525213e-06,8.45929914221508e-06,1.82872371799209e-05
4.14464022536617e-06,3.32109867490195e-06,7.63104589925747e-06,1.50967847995256e-05
1.45573852157319e-05,1.11837110484777e-05,1.16498894484805e-05,3.73909857126902e-05
8.76984924946291e-06,6.41276136848193e-06,9.97307301110284e-06,2.51556836290477e-05
6.4486446970856e-06,5.46532627584409e-06,9.8565939548662e-06,2.17705649277959e-05
8.84922118330395e-06,6.41575193495538e-06,1.33678760235393e-05,2.86328491417986e-05
3.25504372584133e-06,2.86991017646371e-06,6.78401552109096e-06,1.2908969423396e-05
8.26971840970687e-06,8.18751353316487e-06,1.07838272311288e-05,2.72410591740005e-05
4.10472016252888e-06,3.18137602930894e-06,7.86583628717495e-06,1.51519324790128e-05
4.23724149904218e-06,3.17107318835426e-06,7.70743481265103e-06,1.51157495000475e-05
6.57534036563362e-06,4.58396786115519e-06,9.31455297236776e-06,2.04738611991566e-05
7.77210405904383e-06,5.19269148695999e-06,1.19829637029168e-05,2.49477592489206e-05
4.79583147464455e-06,3.4160498103916e-06,8.29664050106815e-06,1.65085217861043e-05
5.56784907880506e-06,3.73053672027206e-06,8.16880822402633e-06,1.74671940231034e-05
5.20686930501303e-06,3.39723632954184e-06,8.36611514509404e-06,1.69702207796489e-05
6.33108213264748e-06,3.7903004200739e-06,9.22319025075031e-06,1.93445728034717e-05
5.13285196163893e-06,3.55227084274716e-06,8.4619314488579e-06,1.7147054253244e-05
7.38649411026401e-06,4.79038886659218e-06,9.45524052854505e-06,2.16321235054012e-05
5.81202393672298e-06,3.58768464326411e-06,9.39444655707263e-06,1.87941551370597e-05
5.68827970887896e-06,3.7197341070147e-06,7.86696264505874e-06,1.72749764609524e-05
5.61363233356943e-06,3.79929142929457e-06,8.20958836422885e-06,1.76225121270928e-05
5.4833229843267e-06,3.80203111848551e-06,8.05800178920454e-06,1.73433558920168e-05
6.91092054674506e-06,4.0741552436653e-06,8.69167998807827e-06,1.96767557784886e-05
5.06349988844757e-06,3.70261685764579e-06,8.41005152626802e-06,1.71761682723614e-05
5.64987152724972e-06,3.92690573556974e-06,8.44705030913313e-06,1.80238275719526e-05
6.90063950256174e-06,4.21783234965444e-06,9.27125181422158e-06,2.03897236664378e-05
9.57378244040761e-06,8.54750911351743e-06,1.12454467833955e-05,2.93667383373206e-05
5.60918746170003e-06,3.77574440697526e-06,8.13780649997741e-06,1.75227383686527e-05
6.35676278347367e-06,3.74274516013655e-06,8.02468443526123e-06,1.81241923788715e-05
4.85049659192143e-06,3.23263952329831e-06,7.66995511405495e-06,1.57530912292747e-05
6.72282063127743e-06,4.03261179647933e-06,9.10124580551165e-06,1.98566782332684e-05
5.23395701012181e-06,3.78445707974302e-06,8.253679515993e-06,1.72720936058578e-05
4.09673045606902e-06,3.3193954500056e-06,8.15826259033031e-06,1.55743884964049e-05
5.46994082270204e-06,5.38341277182504e-06,9.14529825722721e-06,1.99986518517543e-05
5.13265533911759e-06,3.73160532197818e-06,8.29487857296647e-06,1.71591392340622e-05
6.81862200645637e-06,5.10338004746023e-06,9.35254690492129e-06,2.12745489588379e-05
5.13788778681666e-06,3.74681907620986e-06,8.23122337936215e-06,1.71159302423887e-05
4.48461484839784e-06,3.52765078524069e-06,8.06186677557869e-06,1.60741324092172e-05
5.02196366096989e-06,3.82619715400544e-06,8.1926380909006e-06,1.70407989058759e-05
1.00944191224729e-05,6.4110835068558e-06,1.12501618370301e-05,2.77556644663589e-05
7.70768159758645e-06,6.02055412790339e-06,1.07005078542474e-05,2.44287435797372e-05
5.1548990599371e-06,4.25736948649098e-06,8.71335084902738e-06,1.81256193954555e-05
5.39767802803827e-06,3.71527839185297e-06,8.30610703768602e-06,1.74190634575773e-05
5.74474417124022e-06,3.72411646593152e-06,7.98569592677694e-06,1.74545565639487e-05
4.8766934047952e-06,3.48915583809111e-06,8.21035564613723e-06,1.65762048890235e-05
4.8311279286168e-06,3.06134029212387e-06,7.11499784773559e-06,1.50074660684763e-05
1.79267424895498e-05,1.07471137153659e-05,1.77369210654354e-05,4.64107772703511e-05
4.27434054096398e-05,7.26469071374783e-05,6.41280385154209e-05,0.000179518351062539
5.17876767933631e-06,4.69113999914801e-06,9.84029126135087e-06,1.97101989398352e-05
5.01973727254837e-06,3.7916941614971e-06,8.15178607519784e-06,1.69632175092433e-05
6.20376787008708e-06,4.27620667818808e-06,9.01559937827833e-06,1.94955739265535e-05
1.96421097282563e-05,1.60698529693706e-05,1.44716398846616e-05,5.01836025822884e-05
1.49859167455675e-05,1.29478329092871e-05,2.45698673146911e-05,5.25036169695457e-05
1.54154189103581e-05,1.6426537714154e-05,2.00899938520198e-05,5.1931950476532e-05
7.10469911617606e-06,6.49815896173973e-06,1.10846091927243e-05,2.46874672706401e-05
6.55280928130133e-06,5.27795539382757e-06,9.74728368339441e-06,2.15780483585233e-05
9.52563963042644e-06,6.2691955166734e-06,1.12520811591927e-05,2.70469163062925e-05
6.5537302407605e-06,5.19674032838947e-06,9.05283655289438e-06,2.08033071220444e-05
4.96633401460614e-06,4.47385993687597e-06,8.4543841002289e-06,1.7894578051711e-05
3.74192762601683e-06,3.2382819362784e-06,6.83988850228746e-06,1.38200980645827e-05
3.46652194482761e-06,3.4268506983686e-06,6.81617836980789e-06,1.37095510130041e-05
3.99864062764327e-06,3.47213698617987e-06,7.46011485502399e-06,1.49308924688471e-05
4.95714958731933e-06,4.44855091450462e-06,8.28728232259346e-06,1.76929828244174e-05
2.52357281620345e-05,2.21732252939185e-05,2.01312428878763e-05,6.75401963438293e-05
3.46626666769234e-06,2.89807257139215e-06,7.90407833129076e-06,1.42684175703752e-05
4.5525902796844e-06,7.03060794288834e-06,7.87752684219813e-06,1.94607250647709e-05
4.34598374642679e-06,3.80134390018758e-06,7.91824279916309e-06,1.60655704457775e-05
4.38264616250608e-06,7.25623896072291e-06,8.45977447768989e-06,2.00986596009189e-05
3.72520313137743e-06,3.06016003204929e-06,7.44807031513718e-06,1.42334334785639e-05
3.39836794430005e-06,2.80034349737162e-06,6.97096169054969e-06,1.31696731322214e-05
7.14252894712347e-06,6.30204965081944e-06,8.53369467673127e-06,2.19782732746742e-05
3.6896072833709e-06,3.19010090037896e-06,7.30607052560281e-06,1.41857787093527e-05
1.12114402910403e-05,1.07111914483179e-05,1.43717367956343e-05,3.62943685349925e-05
1.45298432901625e-05,1.41052242478367e-05,1.93730484036935e-05,4.80081159416927e-05
1.09353938179742e-05,5.37273699545032e-06,1.05739824959771e-05,2.68821133094016e-05
7.95189413878835e-06,4.65008643843997e-06,9.276479209951e-06,2.18784597871793e-05
1.04736797815418e-05,5.50249831320369e-06,9.69478625438758e-06,2.56709643491331e-05
9.45794043669325e-06,9.249222354824e-06,1.11219475938612e-05,2.98291103853784e-05
4.82850516210054e-06,3.55111208292685e-06,8.25012051788006e-06,1.66297377629074e-05
3.67055535781722e-06,3.18617422838232e-06,7.2118667186625e-06,1.40685963048621e-05
4.09714424783734e-06,3.77567091795589e-06,7.96482427470125e-06,1.58376394404945e-05
4.05062370138363e-06,3.20872991664031e-06,7.33034338349957e-06,1.45896970015235e-05
7.67650493801482e-06,8.62337670187705e-06,1.06741646588566e-05,2.69740462987484e-05
7.11615137446297e-06,5.07105304129498e-06,1.01932362150662e-05,2.23804406308241e-05
4.68353122869322e-06,3.03160820072681e-06,7.58069118740726e-06,1.52958306168273e-05
3.89947115785953e-06,3.03480245001371e-06,7.50227331505315e-06,1.44365469229264e-05
5.06794299844792e-06,3.4863825917906e-06,7.80443920168212e-06,1.63587647919206e-05
6.00700077471989e-06,3.89682362425461e-06,7.96351798085325e-06,1.78673423798277e-05
8.19820056158195e-06,6.0065944090745e-06,9.83922200080773e-06,2.40440169714642e-05
7.95109627614617e-06,6.21807237563078e-06,1.00709681225528e-05,2.42401367743297e-05
7.64186163301146e-06,3.87863301517075e-06,9.08343160750436e-06,2.06039262556866e-05
6.4044897011907e-06,3.4939568092458e-06,7.48206168547668e-06,1.73805081959132e-05
5.19242064882672e-06,3.93183564882111e-06,8.06007222995202e-06,1.71843285275999e-05
4.66782708132872e-06,3.64094855835608e-06,7.66881968967318e-06,1.5977595329358e-05
5.7801835998954e-06,3.9726919687101e-06,8.54562584576137e-06,1.82985014143669e-05
5.09711066156083e-06,3.43667144041862e-06,7.77623725583738e-06,1.63100193578168e-05
4.86855428511936e-06,3.4997533937857e-06,7.89638807208951e-06,1.62646957509946e-05
5.89532017553828e-06,4.03192302635689e-06,8.46026808215999e-06,1.83875112840552e-05
1.57264783986413e-05,5.96857166757574e-06,1.07076558627368e-05,3.24027059289538e-05
3.13541596697364e-05,3.13811613211294e-05,3.44190821933965e-05,9.71544031842622e-05
5.66810244284652e-06,5.57910410851599e-06,1.26030646070609e-05,2.38502711584234e-05
6.27011586811877e-06,6.12456405908028e-06,1.26291231127295e-05,2.50238030399285e-05
1.48403277949652e-05,1.0668380088223e-05,1.73577169804351e-05,4.28664248636233e-05
2.09909133315172e-05,1.62550015099532e-05,2.73501204164672e-05,6.45960352579376e-05
3.79715210780426e-05,6.21933396711249e-05,6.4014846624587e-05,0.000164179707373755
2.05276695448692e-05,1.51213910191592e-05,2.21101584799397e-05,5.77592190439682e-05
5.99444574620774e-06,5.04936623891236e-06,1.28681363256793e-05,2.39119483107994e-05
1.20556492844573e-05,9.90016103851095e-06,1.7895676375459e-05,3.98514866984273e-05
1.00812129374867e-05,6.80384444285284e-06,1.48849258280384e-05,3.17699832083779e-05
3.28617879612415e-06,3.05961794241307e-06,7.98271512479553e-06,1.43285118633327e-05
9.94753367160443e-06,1.21766293534338e-05,1.83506769202482e-05,4.04748399452864e-05
5.48839075690871e-06,4.49229941298716e-06,1.04692057665629e-05,2.04498959364588e-05
4.6647845194095e-06,4.43352014743405e-06,1.04330517858386e-05,1.95313564526822e-05
1.77608520943116e-05,9.13697089497192e-06,1.75709664698365e-05,4.446878945912e-05
6.4730794277182e-06,4.07105620340807e-06,1.04787556975397e-05,2.1022891328666e-05
1.85151782733955e-05,2.21392661809949e-05,3.27224855266501e-05,7.33769299810404e-05
1.92934113321605e-05,4.66923344820378e-05,3.68982705628936e-05,0.000102884016377092
4.14615973196787e-06,3.18873557359433e-06,8.15552476079137e-06,1.54904200663536e-05
3.47381167021188e-06,2.76195354946818e-06,8.51978141773581e-06,1.47555466374159e-05
4.55071043501338e-06,3.65310976996058e-06,9.59068869156072e-06,1.77945088965347e-05
6.97460702381517e-06,1.50933021063258e-05,2.98038559179586e-05,5.18717650480996e-05
1.09128156054978e-05,2.30827738377833e-05,3.78057303032044e-05,7.18013197464855e-05
6.51289034663339e-06,1.15404489219614e-05,1.73142461784497e-05,3.53675854470445e-05
5.11565244580302e-06,9.90000405990394e-06,1.56546819128021e-05,3.06703384185091e-05
1.70652293041498e-05,1.92726731815959e-05,2.92486905781071e-05,6.55865930638528e-05
2.99054002849153e-05,1.84428019264199e-05,3.22289510870964e-05,8.05771532984316e-05
1.500270772125e-05,1.79313402595054e-05,2.36921101419713e-05,5.66261581227268e-05
1.87748712613227e-05,2.76944341209808e-05,3.88439172989052e-05,8.53132226812087e-05
1.09326281675215e-05,9.04974197560312e-06,1.48677410215422e-05,3.48501111646668e-05
1.92249690959547e-05,1.77356744159194e-05,2.60303868147648e-05,6.29910303266388e-05
8.57948885427141e-06,1.92807709886038e-05,1.60544841823763e-05,4.39147440252515e-05
1.24593615732568e-05,1.83893862689999e-05,1.64832927041332e-05,4.733204054639e-05
7.63586704849896e-06,5.44939526555763e-06,1.1056659228902e-05,2.41419215429586e-05
3.71233273165532e-06,2.7594199571131e-06,7.7456645360248e-06,1.42174172247932e-05
1.45638597292572e-05,4.22914954162008e-05,4.50373282296537e-05,0.000101892683375112
1.12812236211727e-05,2.25538545029246e-05,2.93169860191075e-05,6.31520641432048e-05
2.36319431962332e-05,3.58821326916481e-05,3.82583999370073e-05,9.77724758248886e-05
1.60896252850553e-05,2.23519841116147e-05,2.50169280842442e-05,6.34585374809142e-05
6.90182023707453e-06,8.61541735454006e-06,1.36343742933595e-05,2.91516118849741e-05
8.82441677997612e-06,8.27783373908236e-06,1.31984872539119e-05,3.03007377729704e-05
7.52486303888158e-06,5.97741314229562e-06,1.02571955947363e-05,2.37594717759135e-05
2.45620372912862e-05,4.41343528414543e-05,4.12177297137696e-05,0.00010991411984651
7.49529917236935e-06,1.84887852305536e-05,1.89225620850642e-05,4.49066464879872e-05
6.40409459920611e-06,1.02865563295935e-05,1.31512099488606e-05,2.98418608776602e-05
6.4550252293882e-06,2.19850588703229e-05,1.77616584997036e-05,4.62017425994146e-05
5.21528384335195e-06,1.37731998939367e-05,1.27682180405544e-05,3.1756701777843e-05
7.46117723336878e-06,1.70492149088513e-05,1.50156977212211e-05,3.95260898634412e-05
6.95254355289161e-06,4.8442794696284e-06,9.8724155198275e-06,2.16692385423475e-05
1.58332701505314e-05,1.76134683040502e-05,2.47442746295504e-05,5.8191013084132e-05
1.26517674999266e-05,2.68542880409248e-05,2.35647967954293e-05,6.30708523362807e-05
1.14744274391653e-05,7.36026789837154e-06,1.18466337573533e-05,3.06813290948901e-05
6.50034060906754e-06,3.73804001822402e-06,8.59962173816588e-06,1.88380023654574e-05
6.66402187562953e-06,4.47505576940826e-06,9.12037699003513e-06,2.02594546350729e-05
1.92159067691104e-05,2.75779802628001e-05,2.62450422740843e-05,7.30389293059949e-05
9.78393702853102e-06,2.80011269729673e-05,2.13854788222629e-05,5.91705428237612e-05
1.24423537032467e-05,1.19744711173595e-05,1.67887694318643e-05,4.12055942524705e-05
9.46285133406052e-06,7.01121660747616e-06,9.63157249905253e-06,2.61056404405892e-05
5.9162426977164e-06,6.24773855718431e-06,1.00710066114154e-05,2.22349878663161e-05
6.13179459104749e-06,6.38811603241165e-06,9.80866770661066e-06,2.23285783300698e-05
5.02941042311005e-06,5.07402668065936e-06,8.93208958873952e-06,1.90355266925089e-05
4.56887671907585e-06,5.74791975446689e-06,9.05228434118609e-06,1.93690808147288e-05
4.597254255542e-06,4.71738658146981e-06,8.84618755603084e-06,1.81608283930427e-05
4.04194626513859e-06,3.15306372947116e-06,7.59389313105939e-06,1.47889031256691e-05
4.26168175680299e-06,2.99256940919613e-06,7.45969619601306e-06,1.47139473620122e-05
5.12651276001037e-06,3.56731355492322e-06,7.79245333666411e-06,1.64862796515977e-05
3.02793336415131e-05,2.8103982496533e-05,2.35033521967247e-05,8.18866683347707e-05
2.61352901578644e-05,2.15770410938635e-05,2.98356264925177e-05,7.75479577442457e-05
3.95592815803769e-05,2.98460492241389e-05,6.67926999679879e-05,0.000136198030772504
5.08550386142009e-05,5.02167386161966e-05,7.89386409584586e-05,0.000180010418188856
2.34096600239741e-05,1.99950586982166e-05,4.67913119011429e-05,9.01960306233337e-05
3.64181624637636e-05,3.76309302111313e-05,4.58260460767933e-05,0.000119875138751688
3.69072364434598e-06,3.38114996076675e-06,9.93063902192869e-06,1.70025126270414e-05
3.47232168488579e-06,3.15626721917656e-06,9.24182255038298e-06,1.58704114544453e-05
3.75074260327118e-06,3.34569920352763e-06,8.7529550098241e-06,1.58493968166229e-05
6.08211968295284e-05,0.00025162120950265,8.87250577419421e-05,0.000401167464074121
3.06996356910884e-05,3.2734126033698e-05,2.66677318566474e-05,9.01014935814339e-05
2.19807253925416e-05,1.42222589583898e-05,2.28520457625784e-05,5.90550301135098e-05
1.15023375612202e-05,6.61679032947864e-06,1.2747911670314e-05,3.08670395610128e-05
8.01429867255011e-06,4.38937699411034e-06,1.11523053051983e-05,2.35559809718587e-05
1.33789002122602e-05,7.49179932761229e-06,1.69056639315806e-05,3.77763634714531e-05
5.25371716473846e-06,3.56394109567315e-06,9.52836296758928e-06,1.83460212280009e-05
9.07655272960577e-06,8.21431694035382e-06,1.30235513173607e-05,3.03144209873203e-05
7.09636241503621e-06,5.34211682666396e-06,1.03598035310876e-05,2.27982827727877e-05
1.22053832970934e-05,5.302797171346e-06,1.15681499021625e-05,2.9076330370602e-05
2.38000538258674e-05,2.21741486326284e-05,2.35702629908587e-05,6.95444654493545e-05
2.01085279707484e-05,3.16159383444607e-05,2.39282840506692e-05,7.56527503658783e-05
8.0052620576112e-06,5.98215270631328e-06,1.02518217941764e-05,2.42392365581009e-05
2.58428927276619e-05,1.84608565397801e-05,1.97520092237476e-05,6.40557584911896e-05
1.93801147687524e-05,2.02350881156664e-05,2.90791988839044e-05,6.86944017683233e-05
1.22058218095364e-05,6.09187197371005e-06,1.26893798476251e-05,3.09870736308716e-05
6.78985457820251e-06,4.63980251899133e-06,1.02800210631044e-05,2.17096781602983e-05
1.01761689200343e-05,6.7039306718147e-06,1.13956731922927e-05,2.82757727841416e-05
1.01356554955335e-05,8.3325741250643e-06,1.16552994181276e-05,3.01235290387254e-05
1.10332426041733e-05,8.43482325720915e-06,1.13021741616394e-05,3.07702400230219e-05
2.14921569300059e-05,1.39918908154987e-05,1.64134648614316e-05,5.18975126069362e-05
5.69151698149583e-06,4.03729749232411e-06,8.50905224905534e-06,1.82378667228753e-05
1.23258130357599e-05,7.35427530872517e-06,1.18349465414125e-05,3.15150348858976e-05
1.52489735122252e-05,9.31507957255844e-06,1.22328043548466e-05,3.67968574396302e-05
2.46900911917578e-05,1.77892344321932e-05,1.79541012593322e-05,6.04334268832832e-05
3.16928727694139e-05,1.71607727300292e-05,2.31972631898563e-05,7.20509086892995e-05
9.12331111164557e-06,4.96376017498945e-06,9.78392732617293e-06,2.3870998612808e-05
6.33471939990516e-06,4.12800936300039e-06,9.02720970397101e-06,1.94899384668766e-05
5.23391233627227e-06,4.03457590631104e-06,8.44459405613729e-06,1.77130822987206e-05
4.40445124439279e-06,3.355300284106e-06,7.84080286414426e-06,1.56005543926431e-05
3.17384924117724e-05,2.63909068169091e-05,3.12892872544913e-05,8.94186864831727e-05
1.76443346280639e-05,1.58479827454911e-05,2.83363817685606e-05,6.18286991421156e-05
1.22358092824008e-05,1.40317593770105e-05,2.09458719788979e-05,4.72134406383092e-05
2.73549723380943e-05,1.92538891113918e-05,3.04509869720325e-05,7.70598484215187e-05
4.08168180853268e-05,2.65455584403806e-05,4.10935368160488e-05,0.000108455913341756
5.31200678910136e-05,5.11592962023053e-05,8.15450670563875e-05,0.000185824431149706
4.62480280763482e-05,5.22482556377379e-05,7.29479881591684e-05,0.000171444271873254
0.000103166177281156,0.000126065504956801,0.000139649087342251,0.000368880769580208
7.60235953063673e-05,0.000187559402348778,0.000155681845627633,0.000419264843282778
4.80158894260534e-05,4.48387573154195e-05,6.68186006014357e-05,0.000159673247342909
9.01752856258304e-06,7.05932620532301e-06,1.77264991974709e-05,3.38033539653769e-05
6.10324122280014e-06,4.78695108104e-06,1.39002247229503e-05,2.47904170267905e-05
4.47753650386366e-06,4.17363150143251e-06,1.08993056555734e-05,1.95504736608696e-05
4.10856188032594e-06,3.67251994140191e-06,1.06836143129711e-05,1.8464696134699e-05
3.70758306770359e-06,3.47580444259875e-06,9.33417088357527e-06,1.65175583938776e-05
3.98411226615381e-06,3.47426811131639e-06,9.60153753567262e-06,1.70599179131428e-05
9.9194374937116e-06,9.66682421115793e-06,1.42663814201671e-05,3.38526431250366e-05
4.15593862129025e-06,7.23225980478956e-06,9.71909703929843e-06,2.11072954653782e-05
4.85300848513006e-06,6.1414091803033e-06,9.7135276504862e-06,2.07079453159196e-05
7.29034670777962e-06,6.49535825979192e-06,1.10478936509031e-05,2.48335986184747e-05
1.27939850672368e-05,8.39269800482508e-06,1.14134972290004e-05,3.26001803010623e-05
8.45420250900812e-06,8.89202481410837e-06,1.39399571846085e-05,3.1286184507725e-05
3.48708414282628e-06,3.53467531657912e-06,8.14318791954379e-06,1.51649473789492e-05
8.27632750726359e-06,6.31329354701306e-06,1.08711560783941e-05,2.54607771326708e-05
1.0438372953738e-05,6.55032656043049e-06,1.23978423932798e-05,2.93865419074483e-05
3.65673283760711e-06,3.52597162791799e-06,8.43271421417632e-06,1.56154186797014e-05
3.14311497202258e-06,2.83119809877396e-06,7.7042779957134e-06,1.36785910665099e-05
2.80625181041151e-05,6.91933698698082e-05,5.90558395425368e-05,0.00015631172751646
8.87344390545323e-05,0.000308694173073148,0.000138980191197664,0.000536408803325344
5.24033552171606e-06,4.05878496068348e-06,9.57329760322765e-06,1.88724180856272e-05
4.52873354511906e-06,3.28430599090727e-06,7.85933858343474e-06,1.56723781194611e-05
3.64900154116554e-06,3.06143061575627e-06,7.45617322277289e-06,1.41666053796947e-05
1.51669377252506e-05,1.02493654974295e-05,1.39616363615066e-05,3.93779395841866e-05
2.06330586833851e-05,1.5392875548486e-05,1.74850331371278e-05,5.35109673689988e-05
4.31512064790294e-06,4.06679109639086e-06,8.65941651913211e-06,1.70413282634259e-05
4.30716012337559e-06,4.09472673671238e-06,8.93690587970809e-06,1.73387927397961e-05
4.25475298514478e-06,3.66170475043365e-06,9.2486647608584e-06,1.71651224964368e-05
3.96222922499257e-06,3.2179330516925e-06,8.34777963425779e-06,1.55279419109429e-05
3.93996532392887e-06,3.06232355402991e-06,7.97604125398919e-06,1.4978330131948e-05
4.27831971923033e-06,3.22952347058557e-06,7.99679548656644e-06,1.55046386763823e-05
3.92829360746235e-06,3.26202091993498e-06,8.54953327227551e-06,1.57398477996728e-05
3.92295733724809e-06,3.18113285330333e-06,8.21403548996264e-06,1.53181256805141e-05
3.6434250885043e-06,3.16964696795588e-06,8.04692457497573e-06,1.48599966314359e-05
3.59026661470811e-06,3.21787025187868e-06,7.67942950990056e-06,1.44875663764874e-05
3.68429292975576e-06,3.2086525850661e-06,7.84426927936205e-06,1.47372147941839e-05
3.61370289519547e-06,3.07423980521303e-06,8.20130171722913e-06,1.48892444176376e-05
3.5515330078326e-06,3.21919929605786e-06,8.33986435150166e-06,1.51105966553921e-05
1.32297817326809e-05,1.33999312739596e-05,1.87489525794797e-05,4.53786655861203e-05
2.32185710177107e-05,1.15039481590415e-05,2.02215940924549e-05,5.49441132692071e-05
3.70064341379748e-06,2.9780177405124e-06,7.40690211077778e-06,1.40855632650877e-05
3.61058290728377e-06,3.54977357364629e-06,7.17170554461411e-06,1.43320620255442e-05
6.62955597143603e-06,5.11743989014727e-06,1.00188062726634e-05,2.17658021342467e-05
1.11266746663086e-05,6.05712088237084e-06,1.23405507712485e-05,2.9524346319928e-05
4.00820189260922e-06,3.21593337159751e-06,7.60970980508808e-06,1.48338450692948e-05
6.64584380298021e-06,5.22111256638244e-06,1.03051951391713e-05,2.2172151508534e-05
3.40956132250654e-06,2.90422423665271e-06,7.07746911447251e-06,1.33912546736318e-05
3.1386538937019e-06,2.57129621932438e-06,6.78907326779219e-06,1.24990233808185e-05
1.53746928039641e-05,7.85827304533539e-06,1.26102512483436e-05,3.58432170976431e-05
8.13913355378397e-06,4.83381278049139e-06,1.05538030664731e-05,2.35267494007485e-05
3.39516797650504e-06,2.68491924610494e-06,6.35107023262195e-06,1.24311574552319e-05
3.03592023238526e-06,2.47861569985509e-06,6.40266511766842e-06,1.19172010499088e-05
8.72347771213553e-06,5.46960384792154e-06,8.78110802391011e-06,2.29741895839672e-05
5.19732271358426e-06,4.1876130901954e-06,8.05868399035905e-06,1.74436197941387e-05
3.14008670261283e-06,2.47744338604883e-06,6.67624704507653e-06,1.22937771337382e-05
5.36396723446067e-06,3.52165948155739e-06,7.4991152856386e-06,1.63847420016567e-05
1.0836191611631e-05,5.95422907307894e-06,1.04299000256905e-05,2.72203207104005e-05
5.77312260698385e-06,3.79805400562299e-06,7.86239929706482e-06,1.74335759096717e-05
3.805835709905e-06,2.93563489751866e-06,6.70855986069799e-06,1.34500304681216e-05
3.44298472363163e-06,3.26696624764467e-06,6.82712411609055e-06,1.35370750873669e-05
3.63220911281038e-06,3.10434600972403e-06,7.11182738060915e-06,1.38483825031436e-05
4.44632121838006e-06,3.3615277940154e-06,7.43767696519913e-06,1.52455259775946e-05
3.14319649863816e-06,2.85219994964191e-06,6.51577222969852e-06,1.25111686779786e-05
2.95337677271823e-06,2.8715335106366e-06,6.80480629635027e-06,1.26297165797051e-05
3.34247247311545e-06,3.06282875161929e-06,7.21633314850375e-06,1.36216343732385e-05
4.74901547863707e-06,4.28519727082429e-06,8.28869741387724e-06,1.73229101633386e-05
4.62381586256993e-06,4.1373737853023e-06,7.53800545772155e-06,1.62991951055938e-05
8.71577077898342e-06,6.10347929363705e-06,1.07947250446766e-05,2.5613975117297e-05
5.59985091720785e-06,4.07127423942656e-06,8.97151386138478e-06,1.86426390180192e-05
1.17411733202844e-05,9.27618966951679e-06,1.16796071383116e-05,3.26969701281128e-05
7.4925076230822e-06,4.51515827353673e-06,1.09758700970807e-05,2.29835359936996e-05
3.30438523435367e-06,3.08970402418483e-06,6.72616205670246e-06,1.3120251315241e-05
3.76476067249662e-06,3.30847564221232e-06,7.04721455437275e-06,1.41204508690817e-05
5.08946513296974e-06,3.30858986223666e-06,7.84364737365708e-06,1.62417023688635e-05
6.03128978105987e-06,3.96240791317657e-06,8.56937152992345e-06,1.85630692241599e-05
7.83910840600598e-06,4.95623712808547e-06,9.43355138513827e-06,2.22288969192297e-05
3.9147252239988e-06,3.35377713190201e-06,7.02261415385438e-06,1.42911165097552e-05
5.79948832723934e-06,4.12202730787143e-06,8.10387644199015e-06,1.80253920771009e-05
3.24357648496542e-06,2.96156397239578e-06,6.87532924319966e-06,1.30804697005609e-05
4.4545301789321e-06,3.17601528690584e-06,7.38418323353741e-06,1.50147286993753e-05
5.93563741928815e-06,4.93601404187334e-06,9.13382006795773e-06,2.00054715291192e-05
4.36652954780064e-06,5.16182093014927e-06,9.06745276514078e-06,1.85958032430907e-05
3.21063022737189e-06,2.82375313015113e-06,6.67649587373925e-06,1.27108792312623e-05
5.6864408648809e-06,3.77085072350744e-06,7.71889641678334e-06,1.71761880051717e-05
3.94475868221863e-06,3.1898836044391e-06,7.51074213618848e-06,1.46453844228462e-05
4.72191683890131e-06,3.95858339676819e-06,8.16227361122078e-06,1.68427738468903e-05
4.0451020148407e-06,3.1044776742168e-06,6.97527965738931e-06,1.41248593464468e-05
5.51272014435551e-06,3.80052521852539e-06,8.78520419414833e-06,1.80984495570292e-05
3.60225313235566e-06,3.05945681012428e-06,7.15806683620042e-06,1.38197767786804e-05
7.12824602574723e-06,4.44978062029526e-06,8.78105175015947e-06,2.0359078396202e-05
6.88835745863533e-06,5.54037402724834e-06,1.03134583115682e-05,2.27421897974518e-05
3.18914528848471e-06,2.71849258287838e-06,6.48607194590519e-06,1.23937098172683e-05
4.89651308213398e-06,4.44742602523974e-06,8.17849985938007e-06,1.75224389667538e-05
3.82012769643103e-06,3.49286254737172e-06,7.43107242830774e-06,1.47440626721105e-05
3.63595839358349e-06,3.39872849066986e-06,7.7983307624898e-06,1.48330176467431e-05
5.03583467198569e-06,4.03500111185728e-06,8.0289752116213e-06,1.70998109954643e-05
4.93896481178415e-06,3.89943099346931e-06,8.27279482274426e-06,1.71111906279977e-05
7.6200177774133e-06,5.66923339716341e-06,1.00268455379873e-05,2.3316096712564e-05
3.26880355874521e-06,3.17069129398659e-06,6.96132171863902e-06,1.34008165713708e-05
4.64254552331821e-06,3.59884729196554e-06,8.48191699517748e-06,1.67233098104612e-05
9.02666550312205e-06,6.04633947684447e-06,1.13586576306535e-05,2.643166261062e-05
4.37789098442509e-06,4.00839401849937e-06,8.7043061620653e-06,1.70905911649898e-05
5.76090035351364e-06,4.58805275733787e-06,8.83128668359509e-06,1.91802397944466e-05
4.52331384450464e-06,3.67479953360587e-06,8.45245537212817e-06,1.66505687502387e-05
6.41116487726877e-06,4.91888832256843e-06,1.01537347346093e-05,2.14837879344465e-05
7.75668361535155e-06,4.89503565514992e-06,1.12356055754731e-05,2.38873248459746e-05
4.06535711355807e-06,3.45190798029514e-06,7.46533381608784e-06,1.4982598909941e-05
5.84926660765002e-06,4.16815656427061e-06,8.42899180476557e-06,1.84464149766862e-05
6.03436834670565e-06,4.1164538834678e-06,9.13098006675514e-06,1.92818022969286e-05
4.07572766979683e-06,3.38920934499414e-06,8.13957181495913e-06,1.56045088297501e-05
5.9980785384489e-06,4.09850805790531e-06,8.63064562936243e-06,1.87272322257166e-05
5.97929377395836e-06,4.61136163369094e-06,9.00594454503745e-06,1.95965999526868e-05
7.42957845217343e-06,4.81475100588044e-06,1.0123903095314e-05,2.23682325533679e-05
3.30661267326312e-06,2.78773751170147e-06,7.19659453632264e-06,1.32909447212872e-05
5.80997932396638e-06,4.61788662410721e-06,9.68546896720797e-06,2.01133349152816e-05
1.13421706248338e-05,1.47467531783331e-05,1.47156941446786e-05,4.08046179478455e-05
1.1486107475277e-05,4.61580300621301e-06,1.17415539824605e-05,2.78434644639506e-05
6.21520134938361e-06,4.04308681647885e-06,9.08066181314549e-06,1.93389499790079e-05
3.5262821056219e-06,3.14148018082026e-06,6.85422914386446e-06,1.35219914303066e-05
3.6578785689462e-06,3.06940490098451e-06,7.77615830569903e-06,1.45034417756297e-05
3.60541652566659e-06,3.2801962139147e-06,7.61481246721899e-06,1.45004252068003e-05
3.607481732424e-06,2.90016696799712e-06,7.46572965368333e-06,1.39733783541044e-05
9.86636024714845e-06,9.75099550453909e-06,1.45401250035874e-05,3.4157480755275e-05
5.78820076071232e-06,5.99465442210885e-06,1.12098243198142e-05,2.29926795026354e-05
4.84585087124776e-06,4.65383973282461e-06,8.8352511833202e-06,1.83349417873926e-05
4.32138127111293e-06,3.96634630741232e-06,8.62842923930906e-06,1.69161568178343e-05
4.44444820701301e-06,4.1993781413621e-06,8.86209457276408e-06,1.75059209211392e-05
4.43072083154654e-06,3.97777256311995e-06,8.26912626604274e-06,1.66776196607092e-05
4.36376468831008e-06,4.01821932957898e-06,7.92257097016739e-06,1.63045549880565e-05
4.07160809869058e-06,3.88441981545071e-06,8.51301885332255e-06,1.64690467674638e-05
4.14839318408664e-06,4.66515400222908e-06,8.6975864433309e-06,1.75111336296466e-05
4.65729668688871e-06,4.76537583182123e-06,9.53128723530078e-06,1.89539597540107e-05
4.45430939132563e-06,4.15494215967336e-06,8.52840448385046e-06,1.71376560348495e-05
4.33451045742326e-06,4.27226927870608e-06,8.30883743124775e-06,1.69156171673771e-05
4.61220905218728e-06,4.26540593648957e-06,8.37279080041755e-06,1.72504057890944e-05
8.16309544559913e-06,1.11358382512409e-05,1.38516847421195e-05,3.31506184389595e-05
7.44503735620088e-06,4.57584868059043e-06,9.08271080671184e-06,2.11035968435032e-05
3.39347395079208e-06,2.84558351571787e-06,6.94963737064978e-06,1.31886948371597e-05
3.13569054914612e-06,2.72750554489778e-06,6.4800307018327e-06,1.23432267958766e-05
3.87804903685252e-06,3.01989449685798e-06,6.87529389577292e-06,1.37732374294834e-05
3.28662705332205e-06,2.82247121143983e-06,6.87170751018787e-06,1.29808057749498e-05
3.13241478303489e-06,2.72148614081699e-06,6.98039605576736e-06,1.28342969796192e-05
3.39910722736632e-06,2.82926963026864e-06,6.81665148630135e-06,1.30450283439363e-05
2.95402946788276e-06,2.72610054617568e-06,6.18140343446861e-06,1.18615334485271e-05
3.00089286020532e-06,2.81749211755678e-06,6.32096802675244e-06,1.21393530045145e-05
2.83393973726926e-06,2.69946270935756e-06,6.42527483685598e-06,1.19586772834828e-05
2.91791814207215e-06,2.73128679592087e-06,6.45985463354402e-06,1.2109059571537e-05
2.92022915651225e-06,2.63269957423006e-06,6.66699381168552e-06,1.22199225424278e-05
2.92666301180684e-06,2.62503119059841e-06,6.26796154481021e-06,1.18196557472155e-05
3.08645933251548e-06,2.84222915294199e-06,7.16905379402205e-06,1.30977422794795e-05
7.72614733649532e-06,4.98653520105315e-06,9.73955541190172e-06,2.24522379494502e-05
6.88153775108879e-06,4.3896377667174e-06,1.06297155846388e-05,2.1900891102445e-05
7.60549375385681e-06,5.80987124047472e-06,1.13252519701207e-05,2.47406169644523e-05
3.38228614213984e-06,3.20885660682491e-06,7.67109866884728e-06,1.4262241417812e-05
3.30085474963558e-06,2.99249212119172e-06,6.93062998590067e-06,1.3223976856728e-05
4.433072542402e-06,3.88732538531072e-06,8.12667944948768e-06,1.64470773772004e-05
3.24744895727984e-06,2.79662842248585e-06,7.02425830275227e-06,1.3068335682518e-05
3.2919353960685e-06,2.76433774376994e-06,6.80434287464353e-06,1.2860616014482e-05
3.28562730092263e-06,2.82242135050284e-06,7.13145998745098e-06,1.32395086388765e-05
2.96973963554833e-06,2.65662346371696e-06,6.58910014539683e-06,1.22154632446621e-05
3.37873200686525e-06,3.05600329499009e-06,7.4952428862192e-06,1.39299781880745e-05
3.3437785896788e-06,2.86338416045564e-06,7.45441337807782e-06,1.36615761282123e-05
3.13480241352608e-06,2.721119695771e-06,6.56017505712591e-06,1.2416097166423e-05
3.28403566610998e-06,2.89039800402592e-06,6.82969474247961e-06,1.30041284126155e-05
3.25052865316736e-06,2.86458240322671e-06,7.24092074933605e-06,1.33560318057301e-05
3.15986588325303e-06,2.72494475516275e-06,6.8173532891887e-06,1.27021639276045e-05
3.94223449211265e-06,3.63166201023769e-06,7.58463488124098e-06,1.51585313835913e-05
3.6045199697403e-06,3.22948998718839e-06,7.16922311739712e-06,1.40032330743258e-05
3.2091952569884e-06,2.82062930533544e-06,6.4064874474904e-06,1.24363120098142e-05
2.9921784791884e-06,2.67934022092092e-06,6.31949622374617e-06,1.19910149238555e-05
3.35309464204422e-06,2.79299478766152e-06,7.0155922472541e-06,1.31616816769598e-05
3.13473466428615e-06,2.87838614281854e-06,6.77305403836913e-06,1.27861748454738e-05
3.19466506529344e-06,2.77863320412993e-06,6.90684726921952e-06,1.28801455386429e-05
3.33309594153974e-06,2.94773774617854e-06,7.28813994659672e-06,1.3568973634315e-05
3.21606585464409e-06,2.8319628018388e-06,7.07235469888085e-06,1.31203833553637e-05
3.24966452149018e-06,2.92764504716008e-06,7.0832384262084e-06,1.32605479948587e-05
3.31148574001725e-06,2.75000765712809e-06,6.67301266534533e-06,1.27345060624907e-05
3.13488745393029e-06,2.7589130331306e-06,6.67257675802905e-06,1.25663772450899e-05
3.38464584361013e-06,3.08555940947526e-06,7.42233259840972e-06,1.38925378514951e-05
3.23004070799282e-06,2.83648736474227e-06,6.94512767230726e-06,1.30116557450423e-05
3.21455991083249e-06,2.88827703795161e-06,7.28732152742699e-06,1.33901584762111e-05
7.04832658453189e-06,7.23225190330583e-06,1.18456162826592e-05,2.61261947704969e-05
8.83732666845534e-06,9.12233461769474e-06,1.36200789633518e-05,3.15797402495019e-05
3.56942243035747e-06,2.94998937732115e-06,7.22703777218921e-06,1.37464495798678e-05
3.22431268844868e-06,2.86543706360849e-06,7.19016565457201e-06,1.32799154066292e-05
4.32033222771763e-06,3.40760960501219e-06,7.45776404684429e-06,1.51857058795741e-05
6.74596424432427e-06,4.41172277044405e-06,9.53425498315215e-06,2.06919419979205e-05
6.05288779680336e-06,4.50700645882964e-06,9.79399991148407e-06,2.03538941671171e-05
3.26767792497407e-06,2.89688142335153e-06,6.92218734098383e-06,1.30867466893094e-05
3.24559263209196e-06,2.94318596641711e-06,6.72170887086642e-06,1.29104874693755e-05
3.07605681739222e-06,2.84126369168625e-06,6.44865056968742e-06,1.23659710787659e-05
4.14653362777685e-06,3.17949545084683e-06,7.31527676156576e-06,1.46413058401894e-05
2.90549471047406e-05,2.61250889136512e-05,2.70080005699895e-05,8.21880365883814e-05
8.2985401297686e-06,1.14622956195963e-05,1.28228030134682e-05,3.2583638762833e-05
3.77467121665155e-06,3.56560026150095e-06,7.98552302127501e-06,1.53257944994275e-05
3.84402062544481e-06,3.44475798240775e-06,7.52257565756609e-06,1.48113542654186e-05
4.05544991039354e-06,3.46981493174851e-06,7.61519836339766e-06,1.51404632055397e-05
1.23452261737915e-05,1.24069749452391e-05,1.64726511706356e-05,4.12248522896663e-05
2.09567749357869e-05,1.69052953231887e-05,1.91780664432784e-05,5.70401367022541e-05
3.43189145587808e-06,3.34058448242384e-06,7.42168880931774e-06,1.41941647476197e-05
1.0965122013534e-05,1.3207745684675e-05,1.73183328250233e-05,4.14912005232323e-05
4.25252255441307e-06,7.23387654836657e-06,1.0391805854528e-05,2.18782049573076e-05
4.10141849578939e-06,5.73759784316459e-06,9.00072452348091e-06,1.88397408624349e-05
3.99627662740976e-06,5.41679988444356e-06,9.50580735569254e-06,1.89188838675459e-05
3.81028580840956e-06,5.02034195005647e-06,8.4795054081115e-06,1.73101331665775e-05
3.52614506743216e-06,4.50892918847617e-06,7.70764375195899e-06,1.57427180078673e-05
3.67034580134483e-06,4.53727082070477e-06,8.24749726956725e-06,1.64551138916168e-05
3.65649662540391e-06,4.65954319386606e-06,7.75114529714046e-06,1.60671851164104e-05
3.75249976140448e-06,4.42989817176418e-06,7.72471387449867e-06,1.59071118076673e-05
3.92202474817322e-06,4.54035794709463e-06,8.29540379060781e-06,1.67577864858757e-05
3.915231483192e-06,4.89074154447479e-06,8.89980388410229e-06,1.77057769117691e-05
3.37857389603098e-06,3.34032330630456e-06,6.9738721692988e-06,1.36927693716343e-05
3.65777808691682e-06,3.32970381619328e-06,6.81826230976346e-06,1.38057442128736e-05
4.09406964309446e-06,6.10275459407224e-06,1.02491301059169e-05,2.04459543430836e-05
4.27116813799462e-06,4.84999836016023e-06,9.10890839323444e-06,1.82300748913893e-05
4.21088639793104e-06,4.62352396035026e-06,8.7790054127694e-06,1.76134157710507e-05
3.7220992071807e-06,3.08577232798944e-06,7.73229199384005e-06,1.45401635290102e-05
3.48968087322692e-06,3.15592933799281e-06,7.45413115030174e-06,1.40997413615215e-05
3.64770612852873e-06,3.06032314659377e-06,7.23626192989639e-06,1.39442912050189e-05
3.47675252067167e-06,3.09432740317053e-06,7.47571957207367e-06,1.40467994959159e-05
3.52609058635459e-06,3.09265047595626e-06,7.37574870544176e-06,1.39944897677526e-05
3.48474450932369e-06,3.10652129599704e-06,7.57915168031364e-06,1.41704174856344e-05
3.87941979432774e-06,3.51198014050766e-06,7.96408886629787e-06,1.53554888011333e-05
3.63409492233682e-06,3.19607236277551e-06,7.6736253648762e-06,1.45037926499885e-05
3.40923563068077e-06,3.09530912009558e-06,7.48680431090224e-06,1.39913490616786e-05
3.48284684151593e-06,3.04298286966661e-06,7.56610508983941e-06,1.4091934801022e-05
3.41183984897341e-06,2.96530023804346e-06,7.37960737698677e-06,1.37567474640036e-05
1.03398590412855e-05,9.22177227337565e-06,1.48759497838118e-05,3.4437581098473e-05
4.04147914547834e-06,3.66017462976199e-06,8.24381329119272e-06,1.5945467066433e-05
3.27870997596642e-06,2.86581284023195e-06,7.33894532236818e-06,1.34834681385665e-05
3.32649934347594e-06,2.95819178053257e-06,7.17427856934137e-06,1.34589696933499e-05
3.05239863725561e-06,2.75382604819299e-06,6.95621709930503e-06,1.27624417847536e-05
3.21918520337138e-06,2.87931002317185e-06,6.65903657646436e-06,1.27575318030076e-05
2.91598782905144e-05,3.49744244349788e-05,4.55057669947906e-05,0.000109640069720284
2.65162315388271e-05,9.97518883951032e-06,2.29738562645797e-05,5.94652766429172e-05
1.96098022090389e-05,9.55321184351835e-06,1.72621569082258e-05,4.64251709607831e-05
1.23974574477434e-05,5.82636328956783e-06,1.35218757731261e-05,3.17456965104373e-05
7.73996796864781e-06,7.59487656577108e-06,1.66384082148547e-05,3.19732527492736e-05
3.67890048403078e-06,2.8296251817694e-06,8.36106850361944e-06,1.48695941694196e-05
3.12984670252502e-06,2.76015227301745e-06,7.84950597121004e-06,1.37395049467525e-05
1.55671473802618e-05,9.08947601661008e-06,1.96395633041794e-05,4.42961867010512e-05
2.12153096518657e-05,1.31788961226718e-05,2.89790415114811e-05,6.33732472860186e-05
1.13450607869179e-05,1.36462266517741e-05,2.34542342134991e-05,4.84455216521912e-05
6.37389361025693e-06,5.89439576063427e-06,1.46279463214205e-05,2.68962356923117e-05
4.53997352095079e-06,4.95297529826598e-06,1.33238813484437e-05,2.28168301676605e-05
4.3892266508747e-06,4.34278189439673e-06,1.14152188955857e-05,2.01472274408572e-05
8.89061967401307e-06,8.73561775106559e-06,1.22583582770255e-05,2.98845957021041e-05
7.04000076268398e-06,6.70668948720666e-06,1.32290159172503e-05,2.69757061671409e-05
4.54835797278055e-06,3.18699058223579e-06,8.55732157643103e-06,1.62926701314474e-05
1.03108215756492e-05,6.62112170698771e-06,1.1524644131017e-05,2.84565874136539e-05
2.34193558762107e-05,2.58926906068932e-05,3.38781414221586e-05,8.31901879052625e-05
1.14111500961085e-05,2.43331062840203e-05,1.77159674844931e-05,5.34602238646218e-05
1.73255943615989e-05,8.64845288944973e-06,1.31812213651639e-05,3.91552686162125e-05
1.3812278252025e-05,8.95548481936017e-06,1.71489278748343e-05,3.99166909462195e-05
5.4205386910709e-05,2.87247161955753e-05,4.09940842781747e-05,0.000123924187384459
5.57387472634326e-05,2.3090485799688e-05,3.77031006452937e-05,0.000116532333708414
4.5256280798228e-05,2.23289302171996e-05,3.62842412749296e-05,0.000103869452290357
1.44636888208863e-05,8.40568798718074e-06,2.0431271004197e-05,4.3300647812264e-05
8.08004705877741e-06,4.55043682256293e-06,1.22653257542144e-05,2.48958096355548e-05
3.62683132728978e-05,2.13389445244292e-05,4.26193873462243e-05,0.000100226645143551
5.66811533989585e-05,3.49616582965959e-05,4.11484924445448e-05,0.000132791304140099
2.03599793815981e-05,1.49902619101542e-05,3.05392108074971e-05,6.58894520992494e-05
5.87861056889763e-06,4.20614335825564e-06,1.01723867196521e-05,2.02571406468054e-05
5.96977249304449e-06,4.69611298593265e-06,1.11020159866368e-05,2.17679014656139e-05
6.54508039384851e-06,4.88032354359892e-06,1.2619076389548e-05,2.40444803269954e-05
5.87221859352331e-06,3.98405891829134e-06,9.97837824840432e-06,1.9834655760219e-05
8.64311137621837e-05,0.000130091987641661,5.15511578696975e-05,0.000268074259273542
0.000439648180653707,0.000629319042354127,0.000454656101651832,0.00152362332465967
0.000353637214734959,0.000342378063803898,0.000258411562023697,0.000954426840562554
0.000209528811312926,0.000486703890192631,0.000423237719521933,0.00111947042102749
8.23335981959527e-05,8.59305012250228e-05,7.52916632679229e-05,0.000243555762688898
0.000500787529940083,0.00183318298923893,0.000735174147017451,0.00306914466619646
0.000199744084367211,0.000697429787389672,0.000339678512659304,0.00123685238441619
