potencia_x,potencia_y,potencia_z,potencia_total_xyz
0.00024912517331314,0.000642728814470716,0.000592228803798657,0.00148408279158251
0.000392092712729048,0.000528447239276849,0.000435820024602181,0.00135635997660808
0.000171467208678945,0.000112307832778537,0.000144624972600913,0.000428400014058395
2.38443634178274e-05,1.28766590338437e-05,2.55934261155028e-05,6.23144485671739e-05
1.29572922376598e-05,8.12026383748494e-06,1.87380999809183e-05,3.9815656056063e-05
1.19603057109532e-05,7.54958800055677e-06,1.96945293415779e-05,3.92044230530879e-05
4.42084657540621e-06,3.55696523483946e-06,1.34498240987791e-05,2.14276359090247e-05
3.27359896411588e-06,2.80771255317068e-06,1.13372732072198e-05,1.74185847245064e-05
3.65708720030675e-06,3.01587979733149e-06,1.13563657946529e-05,1.80293327922912e-05
3.52468513995617e-06,3.58870780483376e-06,1.22658835996539e-05,1.93792765444439e-05
4.09103550406251e-06,3.40983261538794e-06,1.10099458770304e-05,1.85108139964809e-05
2.44187945926476e-05,1.36087151629068e-05,4.8538237042667e-05,8.65657467982213e-05
2.95330778448441e-05,2.63501738992846e-05,5.12791936140724e-05,0.000107162445358201
8.75589406642252e-06,5.35063694991522e-06,1.47316798935826e-05,2.88382109099204e-05
8.92967568978982e-06,7.43020544414836e-06,1.62660622280192e-05,3.26259433619574e-05
1.04071939946562e-05,8.49349527889951e-06,1.62839525219599e-05,3.51846417955156e-05
3.02981240655796e-06,2.69468580480668e-06,9.86767892592735e-06,1.5592177137292e-05
5.35094437023179e-06,5.19471184912205e-06,1.25528859237159e-05,2.30985421430698e-05
4.58584775400613e-06,3.81389446921288e-06,1.24536012199518e-05,2.08533434431708e-05
1.36352457135567e-05,6.24234389449344e-06,1.58595691003608e-05,3.57371587084109e-05
2.14971080860716e-05,1.30513686008833e-05,2.43204965762503e-05,5.88689732632053e-05
1.43721342650115e-05,8.79591505881018e-06,1.50458545610437e-05,3.82139038848654e-05
4.27967616849772e-06,3.26132051177818e-06,9.04863871753457e-06,1.65896353978105e-05
3.09489617559169e-06,2.60167603467146e-06,8.89342713971227e-06,1.45899993499754e-05
3.59921676506303e-06,3.26807270544297e-06,9.1351833392758e-06,1.60024728097818e-05
3.17375525438065e-06,2.89269159782221e-06,8.82596669397995e-06,1.48924135461828e-05
3.25857324816727e-06,2.65134718496097e-06,9.24090408040281e-06,1.51508245135311e-05
3.09169814606455e-06,2.68428592881619e-06,9.00076863841417e-06,1.47767527132949e-05
2.933880015977e-06,2.66878672912814e-06,9.10560741043955e-06,1.47082741555447e-05
3.139128637217e-06,2.67378395499983e-06,9.22180888151099e-06,1.50347214737278e-05
3.24206593061692e-06,2.72052610524361e-06,8.92059594112642e-06,1.4883187976987e-05
2.97783343533153e-06,2.63412794607443e-06,8.40509379090899e-06,1.4017055172315e-05
7.68735537827501e-05,4.15347688385904e-05,4.78159645243304e-05,0.000166224287145671
1.82658132141018e-05,2.1774938549479e-05,4.10314566241448e-05,8.10722083877256e-05
3.42322448589209e-06,2.68588047011862e-06,1.0567169708729e-05,1.66762746647397e-05
3.80161445242233e-06,3.42384767693269e-06,1.05395253254794e-05,1.77649874548344e-05
3.24661072174577e-06,2.63245386583575e-06,9.55611663414826e-06,1.54351812217298e-05
1.0058431790679e-05,1.28957786256602e-05,2.68360172054662e-05,4.97902276218055e-05
3.20320212347319e-06,2.60198551349179e-06,8.12443163320267e-06,1.39296192701676e-05
4.85639178600337e-06,3.17782635873287e-06,9.21645510416453e-06,1.72506732489008e-05
3.85226664905993e-06,3.24839993896884e-06,9.90027086295671e-06,1.70009374509855e-05
7.35927726149573e-06,4.54541557960529e-06,1.11232924257522e-05,2.30279852668532e-05
3.14309825742104e-06,2.55636375123301e-06,8.94586625264306e-06,1.46453282612971e-05
3.12895227183611e-06,2.64884464796135e-06,9.034228880296e-06,1.48120258000935e-05
3.15724252413268e-06,2.76776398436786e-06,9.24082370980522e-06,1.51658302183058e-05
3.07767716901665e-06,2.68725624648538e-06,8.94691033577327e-06,1.47118437512753e-05
2.84611613235752e-06,2.48123393931797e-06,8.35870350325383e-06,1.36860535749293e-05
3.55473574127644e-06,2.97379465960959e-06,8.87396616369227e-06,1.54024965645783e-05
4.2401823441932e-06,3.87492543587688e-06,1.01409617822225e-05,1.82560695622926e-05
9.78666333100894e-06,4.93272336195043e-06,1.26081683127354e-05,2.73275550056948e-05
4.92236025352503e-06,3.67104686239108e-06,1.06113229378189e-05,1.9204730053735e-05
5.37735679921617e-06,4.77113286608158e-06,1.04553699815668e-05,2.06038596468645e-05
7.69133786779393e-06,4.74674447859943e-06,1.01217431646036e-05,2.2559825510997e-05
3.55444117241005e-06,2.93785873052971e-06,9.58764137661636e-06,1.60799412795561e-05
3.37141308650483e-06,2.91995047304319e-06,9.12476271247054e-06,1.54161262720186e-05
3.28812360222605e-06,2.79641114859957e-06,9.12261045410319e-06,1.52071452049288e-05
3.36971789846353e-06,3.01393309705221e-06,9.30193481678495e-06,1.56855858123007e-05
3.35821217571337e-06,2.89331830392766e-06,9.44875870820446e-06,1.57002891878455e-05
3.68908619104184e-06,2.98436649820115e-06,9.90117748440676e-06,1.65746301736498e-05
3.65586487091224e-06,3.38590750534008e-06,9.69737405853009e-06,1.67391464347824e-05
3.84554064140379e-06,3.19946172612499e-06,9.80976941996918e-06,1.6854771787498e-05
5.21063408190931e-06,3.65298256853398e-06,1.12091477707262e-05,2.00727644211695e-05
5.46673288547174e-06,3.45164492267194e-06,1.02216341810953e-05,1.9140011989239e-05
7.64778934331924e-06,6.7220658115702e-06,1.33833131007107e-05,2.77531682556001e-05
5.54608736567888e-06,4.18482272803047e-06,1.08110436638669e-05,2.05419537575762e-05
7.49531804342959e-06,5.47214995443908e-06,1.1910525681201e-05,2.48779936790697e-05
4.51644541830684e-06,4.62087081342319e-06,1.02658585636825e-05,1.94031747954125e-05
5.05972166377294e-06,4.64677994697112e-06,1.03684582819554e-05,2.00749598926995e-05
4.6433266627143e-06,3.82109265182843e-06,1.13280013806719e-05,1.97924206952146e-05
9.21363261308147e-06,5.88277496944315e-06,1.38489301445676e-05,2.89453377270922e-05
3.78932566040084e-06,3.83840567425703e-06,1.02615066765651e-05,1.7889238011223e-05
3.27841081087558e-06,3.11138510519613e-06,8.74390457968764e-06,1.51337004957593e-05
5.37524195585967e-06,4.26433484180439e-06,1.03634444750418e-05,2.00030212727059e-05
3.83637772416088e-06,3.42497605285306e-06,1.00441816198677e-05,1.73055353968816e-05
3.59491407097715e-06,3.49301819230471e-06,9.49824279185673e-06,1.65861750551386e-05
3.66809848195457e-06,3.54982200796759e-06,9.03985938994058e-06,1.62577798798627e-05
4.06040517249325e-06,4.05194681489402e-06,9.96250874495195e-06,1.80748607323392e-05
2.01185563542275e-05,5.56227006850431e-05,9.10520662894394e-05,0.00016679332332871
4.22996442425883e-06,3.75301929872524e-06,1.16291868164066e-05,1.96121705393906e-05
4.17235879202247e-06,3.63198189029459e-06,1.06185134803091e-05,1.84228541626262e-05
3.83607528081957e-06,3.33586069232965e-06,1.1827050985165e-05,1.89989869583143e-05
7.85444423502634e-06,5.31076796094603e-06,1.2251614971802e-05,2.54168271677744e-05
4.8455983200266e-06,3.86775303674884e-06,1.20651424642213e-05,2.07784938209967e-05
4.5183006366552e-06,3.70857121449582e-06,9.72203801575018e-06,1.79489098669012e-05
6.2579097729525e-06,5.89769086082906e-06,1.08919688418265e-05,2.30475694756081e-05
9.50707227587645e-06,5.94473652526908e-06,1.40572667445008e-05,2.95090755456463e-05
5.02561011175082e-06,3.96841655355749e-06,1.04711494577305e-05,1.94651761230388e-05
9.66390573038874e-06,5.61817770424128e-06,1.58142702243593e-05,3.10963536589893e-05
7.57073468593845e-06,5.70876426593462e-06,1.18190429130169e-05,2.509854186489e-05
3.80401048926222e-06,2.75540491543424e-06,8.9659584954425e-06,1.5525373900139e-05
4.4137939030409e-06,3.31820129561846e-06,9.63338416554448e-06,1.73653793642038e-05
3.64413577527217e-06,3.06274774069491e-06,9.34302683506292e-06,1.604991035103e-05
3.89017085764459e-06,3.11223557582642e-06,9.44551409341939e-06,1.64479205268904e-05
3.88462876369717e-06,3.08734037739734e-06,9.40985077961655e-06,1.63818199207111e-05
3.729745226628e-06,3.15024847731428e-06,9.19629682560438e-06,1.60762905295467e-05
3.73761381057095e-06,3.35045378247752e-06,9.66480376494111e-06,1.67528713579896e-05
3.9802626104794e-06,3.03312078917658e-06,9.24582708973703e-06,1.6259210489393e-05
7.72344383008342e-06,5.19396664256057e-06,1.20184055479537e-05,2.49358160205977e-05
8.33437101162111e-06,7.27622107892595e-06,1.53645230492195e-05,3.09751151397666e-05
6.79471089163778e-06,4.43179424472886e-06,1.15523729895823e-05,2.2778878125949e-05
5.26935452185895e-06,4.2522620497474e-06,1.13381645262133e-05,2.08597810978196e-05
6.67541391715321e-06,4.84697903788663e-06,1.1852580089869e-05,2.33749730449088e-05
9.52179857040806e-06,6.53098622397165e-06,1.47335407976985e-05,3.07863255920782e-05
4.79220551156644e-06,4.30252854986921e-06,1.07535713485533e-05,1.9848305409989e-05
5.14713430028539e-06,4.32975835633567e-06,1.12075145988295e-05,2.06844072554506e-05
4.26873826818327e-06,3.5415831859962e-06,1.02762497720465e-05,1.8086571226226e-05
3.48713614327504e-06,3.04441373645867e-06,9.93274522469202e-06,1.64642951044257e-05
4.21349565165957e-06,3.50707473405454e-06,9.91586892635018e-06,1.76364393120643e-05
4.66130397106165e-06,3.1846075498613e-06,1.03816765828977e-05,1.82275881038206e-05
4.20453976623811e-06,3.02271121800922e-06,9.40760986389202e-06,1.66348608481394e-05
4.65424397234307e-06,3.76529729707574e-06,1.01353692142427e-05,1.85549104836615e-05
3.81787890040064e-06,3.41028753410095e-06,9.58622755535576e-06,1.68143939898573e-05
3.70364404321851e-06,3.35306559229301e-06,9.58273615401021e-06,1.66394457895217e-05
4.0529315089688e-06,3.48815109393747e-06,1.04140005797642e-05,1.79550831826704e-05
5.37516815659321e-06,3.89819225511287e-06,1.19913620861657e-05,2.12647224978718e-05
4.40164169403133e-06,3.64365616177861e-06,1.0271338608089e-05,1.8316636463899e-05
5.53185467542319e-06,4.23276478139332e-06,1.06691953651592e-05,2.04338148219757e-05
5.62415248664556e-06,4.13152318747021e-06,1.06811676322181e-05,2.04368433063339e-05
1.131898910526e-05,9.25860157917183e-06,2.10027111390084e-05,4.15803018234403e-05
5.417833508097e-06,3.58503771401404e-06,1.09956978824909e-05,1.9998569104602e-05
6.3398851967547e-06,4.69526703122317e-06,1.15272933840017e-05,2.25624456119796e-05
5.60268591079416e-06,3.97441979722297e-06,1.12749172066874e-05,2.08520229147046e-05
8.58308955094608e-06,5.01531112592446e-06,1.34769522758761e-05,2.70753529527467e-05
1.02109286601249e-05,6.87420225512093e-06,1.68760465730943e-05,3.39611774883401e-05
4.76182743944755e-06,4.18171622059067e-06,1.04085750937346e-05,1.93521187537728e-05
4.83867817771978e-06,3.75015516163369e-06,1.10460822033135e-05,1.9634915542667e-05
4.10963313498776e-06,3.30841580761397e-06,9.84320826275329e-06,1.7261257205355e-05
3.55279057619459e-06,3.09510806834979e-06,9.68763958058806e-06,1.63355382251324e-05
5.3956182471783e-06,3.91698031826504e-06,1.212499837988e-05,2.14375969453234e-05
3.30259820083241e-06,2.78460728284141e-06,9.54624041452888e-06,1.56334458982027e-05
3.88536795460283e-06,3.12167651045898e-06,9.61492756193187e-06,1.66219720269937e-05
5.68361661686066e-06,4.37856571308004e-06,1.07368021797936e-05,2.07989845097343e-05
4.20195895165578e-06,3.53460171998577e-06,9.84597490406602e-06,1.75825355757076e-05
6.76753263393093e-06,4.57882551497905e-06,1.17757294092953e-05,2.31220875582053e-05
1.02901357280151e-05,5.43812030672951e-06,1.49100629287958e-05,3.06383189635404e-05
8.28779585430462e-06,7.02343183329426e-06,1.58930135087391e-05,3.1204241196338e-05
6.79060299797795e-06,4.84993616051057e-06,1.15942298308889e-05,2.32347689893775e-05
6.20837987551136e-06,4.57227286488732e-06,1.05821550438576e-05,2.13628077842562e-05
3.34388243331064e-06,2.91132741388896e-06,9.04069491320524e-06,1.52959047604048e-05
7.99381921203079e-06,8.14593748410046e-06,1.33648563297689e-05,2.95046130259002e-05
4.49237321008409e-06,3.73968070178953e-06,9.5671937720576e-06,1.77992476839312e-05
3.56830742058192e-06,3.27951937787339e-06,8.87608645379036e-06,1.57239132522457e-05
3.55359796236042e-06,3.093644820784e-06,1.06062437001787e-05,1.72534864833231e-05
6.12053715778009e-06,4.39616172661489e-06,1.12809100218687e-05,2.17976089062637e-05
6.20080479523992e-06,4.24780752610903e-06,1.08506579943269e-05,2.12992703156758e-05
7.04015050675249e-06,5.87752096900818e-06,1.11193571956291e-05,2.40370286713898e-05
9.83976743813022e-06,1.23093739463863e-05,2.9830926364327e-05,5.19800677488435e-05
3.36238768452341e-06,3.22639949972109e-06,9.4107202887653e-06,1.59995074730098e-05
3.60298525231515e-06,3.06988544179887e-06,9.45765542313087e-06,1.61305261172449e-05
3.07345994277901e-06,2.69989557265043e-06,9.50607829144622e-06,1.52794338068757e-05
3.7016865169492e-06,3.12914223725737e-06,1.02030021888093e-05,1.70338309430158e-05
1.24412325997671e-05,7.4051905824239e-06,1.38773681732671e-05,3.37237913554581e-05
4.47124466641747e-06,3.68915254533403e-06,1.04208903017747e-05,1.85812875135262e-05
4.49168217123215e-06,3.7984867506199e-06,1.02409265401364e-05,1.85310954619884e-05
4.41065989459171e-06,3.55458345883273e-06,9.30984470969287e-06,1.72750880631173e-05
5.65817027488684e-06,4.25516536650561e-06,1.04378164698283e-05,2.03511521112207e-05
4.80007324016436e-06,3.81960042147938e-06,1.0251860545308e-05,1.88715342069518e-05
3.94650973816815e-06,2.9358607173017e-06,9.38469445142407e-06,1.62670649068939e-05
5.55227953442172e-06,4.17648807923248e-06,1.22931407967481e-05,2.20219084104023e-05
5.43774986138622e-06,4.44722909638561e-06,1.13901335284471e-05,2.1275112486219e-05
3.59327877633945e-06,3.02241021836364e-06,9.52088233901345e-06,1.61365713337165e-05
4.55460470377776e-06,3.23016708210456e-06,1.00935729032096e-05,1.7878344689092e-05
5.57855008740007e-06,4.12071170107487e-06,1.11382277863359e-05,2.08374895748108e-05
4.10102552867535e-06,3.75688919136976e-06,9.53233559307168e-06,1.73902503131168e-05
5.46770621442845e-06,4.85012114965305e-06,1.08194239059738e-05,2.11372512700553e-05
0.000250750126690983,8.8471844597051e-05,0.000132669189878352,0.000471891161166385
7.97844734915918e-05,4.33479095622137e-05,5.89377923432166e-05,0.000182070175397022
6.43938043522295e-05,4.03648064078298e-05,6.14698161269377e-05,0.000166228426886997
1.26423620565621e-05,8.85578779998243e-06,1.82280294902492e-05,3.97261793467937e-05
6.13749532718512e-06,4.79313630796192e-06,1.36206958700919e-05,2.4551327505239e-05
7.76185568666796e-06,6.87200951556929e-06,1.4154616593719e-05,2.87884817959563e-05
1.04596444952956e-05,6.99094403720059e-06,1.30823772361909e-05,3.05329657686871e-05
4.43728446146936e-06,3.72795134169864e-06,1.16191870566487e-05,1.97844228598167e-05
4.72798287962587e-06,3.70740706951944e-06,1.21429018200051e-05,2.05782917691504e-05
1.48450768555736e-05,1.33048052074544e-05,2.32663197027338e-05,5.14162017657618e-05
8.07670554789974e-06,6.28916742030558e-06,1.66629643315216e-05,3.10288372997269e-05
3.88566638861306e-06,3.31617253901449e-06,1.0198640378833e-05,1.74004793064606e-05
3.44785918324144e-06,3.14241899587307e-06,9.72169774785822e-06,1.63119759269727e-05
3.23659244901283e-06,3.04137157186787e-06,9.16101732351732e-06,1.5438981344398e-05
3.29247242866109e-06,3.06817169984757e-06,9.54319787775445e-06,1.59038420062631e-05
3.33642370442191e-06,3.06816597485625e-06,9.68259970174063e-06,1.60871893810188e-05
3.25063448277661e-06,3.00005839429029e-06,9.32708377769415e-06,1.5577776654761e-05
1.04002496549813e-05,1.62762559714885e-05,2.76713054585826e-05,5.43478110850524e-05
4.15186194703728e-06,3.1908674374851e-06,1.05175790856831e-05,1.78603084702055e-05
3.5583654474993e-06,2.99906369239293e-06,1.07467732958342e-05,1.73042024357264e-05
4.23436957571173e-06,3.20704993018999e-06,1.13628117557863e-05,1.88042312616881e-05
3.72757549566705e-06,3.10834773188143e-06,1.11966342338286e-05,1.80325574613771e-05
4.39787062230157e-06,3.50958048411137e-06,1.49563731335298e-05,2.28638242399427e-05
2.9311023035028e-05,1.87393214360253e-05,5.32212977608506e-05,0.000101271642231904
4.53877401626939e-06,3.75311416724369e-06,1.29551423503746e-05,2.12470305338876e-05
6.96477262415971e-05,2.28080151049273e-05,6.33247102881978e-05,0.000155780451634722
7.16791229350504e-06,5.11200235528693e-06,1.48337172608526e-05,2.71136319096446e-05
3.4677477887721e-06,3.04549798134543e-06,1.17299033116759e-05,1.82431490817934e-05
4.84430585074407e-06,4.08789702199163e-06,1.2146935568201e-05,2.10791384409367e-05
7.50832947938476e-06,5.27412431580623e-06,1.53680805515049e-05,2.81505343466959e-05
4.80106842019966e-06,4.26099860035855e-06,1.29681086669692e-05,2.20301756875274e-05
3.51386327364143e-06,3.05639423368177e-06,1.04312541411431e-05,1.70015116484663e-05
3.52007538553263e-06,3.20947936523464e-06,1.0615252814503e-05,1.73448075652703e-05
3.54073134785885e-06,3.30562024911244e-06,1.11583849425195e-05,1.80047365394908e-05
3.41822970683495e-06,3.02870909277331e-06,1.10561581880211e-05,1.75030969876294e-05
3.42590783339945e-06,3.2754936235651e-06,1.11318142134039e-05,1.78332156703684e-05
3.56246403638175e-06,3.11183110713493e-06,1.12746960092639e-05,1.79489911527806e-05
1.20722040774849e-05,9.36502564547878e-06,1.63327886473491e-05,3.77700183703128e-05
7.80930216352078e-06,5.91155813637063e-06,1.57810499840192e-05,2.95019102839106e-05
5.17641026718343e-06,3.85428861845566e-06,1.18594820146739e-05,2.0890180900313e-05
5.45848325803739e-06,3.98350793040683e-06,1.26606078391893e-05,2.21025990276335e-05
6.98117189738931e-06,4.59980956089703e-06,1.37643241116259e-05,2.53453055699122e-05
7.80412854968898e-06,4.81117819060706e-06,1.35450407495841e-05,2.61603474898801e-05
6.22987919463283e-06,4.55225494323958e-06,1.27063978116929e-05,2.34885319495653e-05
5.73649258605069e-06,4.34039438942329e-06,1.31099844051671e-05,2.31868713806411e-05
6.26191349369023e-06,4.96277694792407e-06,1.27448367631134e-05,2.39695272047277e-05
5.87848696066273e-06,5.00540113305091e-06,1.18352221833114e-05,2.27191102770251e-05
5.17317510491836e-06,4.21113615999137e-06,1.02807558962926e-05,1.96650671612024e-05
6.33002813242153e-06,5.55146607067573e-06,1.29163698382994e-05,2.47978640413967e-05
4.25260975611776e-06,3.8237110768734e-06,1.07613157356087e-05,1.88376365685999e-05
7.13072238610128e-06,5.25794543048233e-06,1.41354328759297e-05,2.65241006925133e-05
6.69440755467547e-06,5.22486040296657e-06,1.32103432688617e-05,2.51296112265038e-05
8.03528865008332e-06,6.21891401514028e-06,1.59410598704057e-05,3.01952625356293e-05
8.59655334810936e-06,5.84531456600264e-06,1.33324965153556e-05,2.77743644294676e-05
1.18451618332769e-05,1.02148322806829e-05,2.14193978893818e-05,4.34793920033416e-05
1.43588305163904e-05,1.0887646614013e-05,2.77287305044619e-05,5.29752076348653e-05
2.2911855967619e-05,1.71133868189726e-05,4.48333790590582e-05,8.48586218456498e-05
0.000110853366296346,0.000296099432120327,0.000137164361617217,0.00054411716003389
4.3046116414872e-05,3.91850152122904e-05,3.54010095933695e-05,0.000117632141220532
9.32046298444574e-06,7.12898070689509e-06,2.06413676828063e-05,3.70908113741471e-05
6.81621689209552e-06,5.3036304657844e-06,1.62550152868318e-05,2.83748626447117e-05
3.75932667882652e-06,4.01806213208317e-06,1.24383613273709e-05,2.02157501382806e-05
3.74962536750364e-06,3.94297147111962e-06,1.33639816026613e-05,2.10565784412845e-05
8.58863386947127e-06,6.02790416285166e-06,1.36258286944481e-05,2.82423667267711e-05
9.62461125336303e-06,1.37463065458128e-05,1.78135907593984e-05,4.11845085585742e-05
5.2259155536839e-06,4.16733986183026e-06,1.14905211728778e-05,2.0883776588392e-05
6.18213620648235e-06,4.84927555555882e-06,1.20667885963626e-05,2.30982003584038e-05
4.91099697132516e-06,4.23621669985228e-06,1.09090283177349e-05,2.00562419889123e-05
1.1807871471151e-05,6.68132486047386e-06,1.71669320085049e-05,3.56561283401298e-05
7.05389124942459e-06,4.86012041380981e-06,1.34579369730208e-05,2.53719486362552e-05
3.71899840906445e-06,3.15165842734582e-06,1.04395071597581e-05,1.73101639961684e-05
3.35803488997657e-06,2.88021410086348e-06,1.06631244735204e-05,1.69013734643605e-05
3.65102685094694e-06,3.13457322362663e-06,1.10933345686078e-05,1.78789346431814e-05
3.38366849113186e-06,2.93554190334812e-06,1.10157315791377e-05,1.73349419736176e-05
3.20538540798687e-06,2.98052009579937e-06,1.04896631724141e-05,1.66755686762004e-05
3.25363025460622e-06,2.78227972001111e-06,9.79171379585888e-06,1.58276237704762e-05
3.36244078466591e-06,3.05312180485189e-06,1.02393098623085e-05,1.66548724518263e-05
8.01214639215724e-06,5.73527179759669e-06,1.36708189947414e-05,2.74182371844954e-05
2.96782878372936e-06,2.63855885723588e-06,9.41637531469688e-06,1.50227629556621e-05
3.2462200145112e-06,3.36374886962268e-06,9.9746374071564e-06,1.65846062912903e-05
1.2933041075871e-05,1.28006093173649e-05,2.16008047335112e-05,4.73344551267471e-05
4.93711028154744e-06,3.52461016571856e-06,1.21613310781934e-05,2.06230515254594e-05
3.04514031978287e-06,2.69386403692651e-06,1.01921546929842e-05,1.59311590496936e-05
3.36839168356699e-06,3.11701313654947e-06,1.0507789873821e-05,1.69931946939374e-05
3.18840552741523e-06,3.13029476338249e-06,1.00750584379179e-05,1.63937587287156e-05
3.47378968996017e-06,3.04701254987881e-06,1.03320654531617e-05,1.68528676930006e-05
3.15222187897959e-06,2.74344327193046e-06,1.0259981438797e-05,1.61556465897071e-05
3.25269995806579e-06,2.67469659911672e-06,9.77272318071076e-06,1.57001197378933e-05
3.30918990659608e-06,2.88192131128251e-06,1.00621762005856e-05,1.62532874184642e-05
3.33112693241868e-06,3.20814997093731e-06,1.04396893088638e-05,1.69789662122198e-05
3.1285811874743e-06,2.68552732194587e-06,9.99153075650125e-06,1.58056392659214e-05
3.23424680083691e-06,2.85587721396581e-06,9.5587224813584e-06,1.56488464961611e-05
5.32455503753496e-06,4.69538883399612e-06,1.24696658084356e-05,2.24896096799666e-05
6.4081498154183e-06,6.22998620576823e-06,1.14505051027589e-05,2.40886411239455e-05
3.14081866116379e-06,2.85684174161591e-06,9.96010186322779e-06,1.59577622660075e-05
7.37636098416112e-06,5.17833489310918e-06,1.52296820286474e-05,2.77843779059177e-05
7.96560827519331e-06,6.43330715717154e-06,1.47858394464263e-05,2.91847548787912e-05
4.60134212816018e-06,3.73137744936185e-06,9.9288149842478e-06,1.82615345617698e-05
1.79096562779501e-05,1.32379087911932e-05,2.9216845805397e-05,6.03644108745403e-05
6.04145003065865e-06,4.07963152623565e-06,1.04443250474715e-05,2.05654066043658e-05
7.61708210674283e-06,6.10448809121716e-06,1.17758724832298e-05,2.54974426811898e-05
8.66800025012234e-06,5.0600182278625e-06,1.1670598703801e-05,2.53986171817859e-05
4.55249495779296e-06,4.41252712776793e-06,9.2284931814936e-06,1.81935152670545e-05
2.90780972653599e-06,2.82404204448722e-06,8.52026285511355e-06,1.42521146261368e-05
3.12710546399966e-06,2.95905924389181e-06,8.78003203637018e-06,1.48661967442616e-05
2.80744782900771e-06,2.7801931912271e-06,8.68517493371902e-06,1.42728159539538e-05
2.8891506485267e-06,2.75795790269452e-06,8.61211124103667e-06,1.42592197922579e-05
4.19237865874296e-06,3.02302426152226e-06,8.45438313718948e-06,1.56697860574547e-05
1.07727752263809e-05,7.0969002030762e-06,1.29414934997134e-05,3.08111689291704e-05
7.86700928680159e-06,7.69726976886171e-06,1.44049055114505e-05,2.99691845671138e-05
7.61531065994242e-06,5.7714620495024e-06,1.25468982314655e-05,2.59336709409104e-05
8.01195068545643e-06,5.91190718644733e-06,1.14388371534394e-05,2.53626950253432e-05
1.5175130556342e-05,1.3959035881159e-05,2.22174987885353e-05,5.13516652260363e-05
1.41914576438833e-05,8.2143948103048e-06,2.47328997205702e-05,4.71387521747583e-05
0.000246484188447674,0.000179654288723035,0.000134260672400516,0.000560399149571224
2.47737512796533e-05,1.35891886578376e-05,2.14054640069819e-05,5.97684039444727e-05
3.56843758191381e-05,5.48085613390821e-05,4.72443235670112e-05,0.000137737260725231
8.59150733292708e-05,2.9374830404588e-05,0.000715465588875175,0.000830755492609033
4.23083074347635e-06,3.72534938701947e-06,1.25667818744685e-05,2.05229620049644e-05
3.26309664794369e-06,2.95041140965724e-06,8.79311171737496e-06,1.50066197749759e-05
4.64418927033177e-05,2.02748043929932e-05,4.57386846959411e-05,0.000112455381792252
5.74865107072775e-06,3.86620696045377e-06,1.06830325137866e-05,2.02978905449681e-05
3.95716231498453e-06,3.08679206202017e-06,9.68202529607156e-06,1.67259796730763e-05
6.08053546440936e-06,3.48419316567092e-06,1.05343276183228e-05,2.00990562484031e-05
5.02342532353909e-06,3.69801911874459e-06,1.12354907054245e-05,1.99569351477082e-05
3.10067647345475e-05,7.87787294837543e-05,0.000112176744940648,0.00022196223915895
0.000128601524756344,9.36250328501939e-05,6.25276324126575e-05,0.000284754190019195
2.57357287586479e-05,1.96184127677796e-05,3.65241893443684e-05,8.1878330870796e-05
0.000114422812918811,0.000125013853242618,0.000216553643352203,0.000455990309513632
3.31784646901252e-05,1.83047660172362e-05,6.62106877193522e-05,0.000117693918426714
0.000273611682382964,0.000314460274971769,0.000479078203121686,0.00106715016047642
0.000527538175588556,0.00111990290767425,0.00169720203860207,0.00334464312186487
0.000243469470269657,0.000444222665811162,0.000634425532936712,0.00132211766901753
5.09215971452829e-05,7.16478484398044e-05,8.22983616971474e-05,0.000204867807282235
4.12236412682129e-05,2.37167200225636e-05,7.50602421531959e-05,0.000140000603443972
7.29601042766824e-05,7.24148366009737e-05,0.000126964575652648,0.000272339516530304
0.000227390787805211,0.000163961577146328,0.000234559639401224,0.000625912004352764
0.000104724855598711,5.15198832395585e-05,0.000100558505755415,0.000256803244593685
9.69662906691665e-05,8.80666794255973e-05,7.44773522290103e-05,0.000259510322323774
7.75725096930707e-05,7.06200823383856e-05,8.54290930472694e-05,0.000233621685078726
6.14524545624014e-05,3.33991775652072e-05,4.95382336316366e-05,0.000144389865759245
4.67619428123441e-05,2.88370060472512e-05,5.11894318001161e-05,0.000126788380659711
6.48033419850924e-05,5.24242646360321e-05,0.000142876061839752,0.000260103668460876
7.13542437765237e-05,2.78410981609855e-05,8.06793286614515e-05,0.000179874670598961
0.000102124489017638,8.88479602804628e-05,0.000112796387873589,0.00030376883717169
0.000185651997059632,0.000161416226367075,0.000238285550320436,0.000585353773747143
0.000245804493921175,0.000185089437515236,0.000281425854928664,0.000712319786365076
0.000219375806563488,0.000162865490877889,0.000301432473295803,0.000683673770737181
5.52543458569832e-05,0.000112486007297537,0.000196379082014162,0.000364119435168682
9.41191274890743e-05,3.88145963797767e-05,6.37789359281587e-05,0.00019671265979701
0.000114593125213287,0.000118056566768494,0.000358160849724558,0.000590810541706339
6.30100225463366e-05,4.19852085090256e-05,9.36296416245704e-05,0.000198624872679933
0.000209407926097832,0.00014383998059527,0.000189004077198824,0.000542251983891926
0.000242445127191292,0.000209162412014718,0.000239817998878921,0.000691425538084931
0.000412747934933999,0.000923305958291795,0.00102756825878947,0.00236362215201527
0.000555185209675691,0.00153855328268143,0.00158201137556512,0.00367574986792224
0.000513721618016094,0.00108731350738428,0.00110879519307739,0.00270983031847776
0.000549165804195697,0.00146918393358496,0.00116586973688355,0.00318421947466421
0.000336415737032503,0.000702386437729662,0.000833117419934532,0.0018719195946967
0.000116476924925158,0.000161150922073239,0.000192245800362685,0.000469873647361082
3.93624908834951e-05,2.45685319493627e-05,5.351180399219e-05,0.000117442826825048
0.000121894422317854,0.00013212646955299,0.000361787203149964,0.000615808095020808
5.23195118827666e-05,4.57855987666729e-05,7.28791177601475e-05,0.000170984228409587
0.000147651511213567,0.000113568702433309,0.000175877793574339,0.000437098007221215
0.000335189352030338,0.000454844627769331,0.000592233873753361,0.00138226785355303
0.000156756431430585,0.000260997331754454,0.000311419980219488,0.000729173743404527
2.02086301501681e-05,9.49894419241524e-06,3.94876875155482e-05,6.91952618581315e-05
6.40160184712805e-05,4.0312487204405e-05,7.83273917323183e-05,0.000182655897408004
0.000131586342892074,0.000128403259042145,0.00018315250502743,0.000443142106961649
8.82107140181769e-05,9.32504304045329e-05,0.000118232416018746,0.000299693560441456
0.000228593446257035,0.000196830354576494,0.000386358134230926,0.000811781935064455
0.000524460998200166,0.00138014898458157,0.00135170857161955,0.00325631855440129
0.000216617237837584,0.000199531689665553,0.000312581998860634,0.00072873092636377
0.000543093943693505,0.000932061195233856,0.00124728845631051,0.00272244359523787
0.000238553534029079,0.000217521557516599,0.000217733346746837,0.000673808438292515
0.000374596919543447,0.000301042164429484,0.000449875926632723,0.00112551501060565
0.000238398891396272,0.000283033807588557,0.000455071356365029,0.000976504055349858
0.000660484898153755,0.0013478581725901,0.000665419049489958,0.00267376212023381
0.000308937884795589,0.0010465585944932,0.000538379404624921,0.00189387588391371
0.000314965813969005,0.000483672402175903,0.000438265071102702,0.00123690328724761
0.00034916368196615,0.000647924550448115,0.000393750098779849,0.00139083833119411
0.000281118538574119,0.000483287496569711,0.000258902148555391,0.00102330818369922
0.000160081174406917,0.000155088486613522,0.000186962231426234,0.000502131892446673
0.000102033596673872,0.000187695353871976,0.0002059585680184,0.000495687518564248
0.000410854574436775,0.000608802842001432,0.000331218711754566,0.00135087612819277
3.57257713723944e-05,3.39865405992346e-05,8.19471301705777e-05,0.000151659442142207
0.000139873875418011,0.000102301717142195,0.000178759513537899,0.000420935106098104
0.000127850316616865,0.000111132637416876,0.00029741180180946,0.000536394755843201
2.98420979455331e-05,2.31957486832045e-05,6.57535486078892e-05,0.000118791395236627
0.000394616024485708,0.00114513857283254,0.000577707457997808,0.00211746205531605
0.000261845011952167,0.000331989695652326,0.000258886455992073,0.000852721163596565
9.78857127543299e-05,0.00010521504961816,0.00012415323171076,0.00032725399408325
0.000214018347094976,0.000175073553317168,0.00017332810385247,0.000562420004264614
0.000175293576742788,0.00109188082947964,0.00026894029744282,0.00153611470366525
0.000178790855876565,0.000499560862685033,0.0002215541044771,0.000899905823038698
0.000434552603840413,0.0017952639411507,0.000683412205880743,0.00291322875087186
0.000254171806679565,0.000704228447162381,0.000259503335355532,0.00121790358919748
0.000690370369595711,0.00229037747097425,0.000827830740742544,0.0038085785813125
0.000978596019622977,0.00336572146124485,0.00109397832248829,0.00543829580335612
0.00119317555761356,0.00441081108875196,0.00296646502281129,0.00857045166917682
0.00290912716371925,0.00780672254903978,0.00872283104484016,0.0194386807575992
0.00172344527820216,0.00769802957207258,0.00577428988178015,0.0151957647320549
0.0011612261347328,0.00434734651479224,0.00230297972331339,0.00781155237283843
0.0016743628511759,0.00691467891225908,0.0053008851893819,0.0138899269528169
0.00223486491489281,0.00736309114019178,0.00491131452150199,0.0145092705765866
0.00183175167524426,0.00767672521887317,0.00554650676593274,0.0150549836600502
0.00160320802639941,0.00613641247791135,0.00388715084737139,0.0116267713516822
0.00188665659287614,0.00717260523406077,0.00610866320118555,0.0151679250281225
0.00168806447135223,0.00761340384323685,0.00673864843427384,0.0160401167488629
0.00187568178842058,0.00885183193799315,0.00670880454226673,0.0174363182686805
0.00213725573166201,0.00808563510647501,0.00690851856116023,0.0171314093992972
0.00148158762984435,0.00749580808908889,0.00759199178044116,0.0165693874993744
0.00195559792361048,0.00878302228250675,0.00992509613371397,0.0206637163398312
0.00187703411307287,0.00911614615687002,0.00977135045004542,0.0207645307199883
0.00226308122008415,0.00825410499308968,0.00939655845255768,0.0199137446657315
0.000796433985289991,0.00234314653133593,0.00162017627621397,0.0047597567928399
0.000314238037196779,0.000540529748797585,0.000361325773799988,0.00121609355979435
0.000270559140149503,0.000218886401722687,0.000277878876049884,0.000767324417922074
0.000603178009500663,0.0015099220326096,0.0011611034303573,0.00327420347246756
0.000340567515079517,0.000124208219838271,0.000269547844343831,0.000734323579261619
4.07916459465961e-05,2.67002482749459e-05,7.23199094198111e-05,0.000139811803641353
8.39890911863003e-05,6.70960830158611e-05,0.000141416207901789,0.00029250138210395
2.89023784131519e-05,1.78690959409856e-05,7.83793788757447e-05,0.000125150853229882
1.95782667281807e-05,1.70149277454174e-05,4.99578906558407e-05,8.65510851294388e-05
0.000355181156081001,0.000489775113566621,0.000558588578927143,0.00140354484857477
0.000215472976308703,0.000101597673039863,0.000219115788247811,0.000536186437596376
6.23562033299272e-05,4.11208064803221e-05,7.90970217595728e-05,0.000182574031569822
1.86837569154222e-05,8.23930588447341e-06,2.59877871676329e-05,5.29108499675285e-05
0.000178029973518343,0.0001247159278402,0.000151605882973037,0.00045435178433158
8.33362259752091e-05,0.00017659463601653,0.000873409371736782,0.00113334023372852
0.000153622480327037,0.000124861194287902,0.000146031067613345,0.000424514742228284
8.0430988166116e-05,5.87684736240912e-05,0.000125673694915453,0.00026487315670566
0.000125028631645102,7.7525813420637e-05,0.000148787011570292,0.000351341456636031
0.000111894858363058,0.000153555309486734,0.0001691128120853,0.000434562979935092
6.42449938591095e-05,5.85606492836113e-05,8.960055957674e-05,0.000212406202719461
0.000148874519143564,0.00023045695313317,0.000187937433791901,0.000567268906068636
4.63079449317842e-05,9.00292684212207e-05,0.000108456978418117,0.000244794191771122
2.35057146728782e-05,2.20494452083227e-05,4.02382944437588e-05,8.57934543249597e-05
3.61055549140413e-05,4.6690752388117e-05,6.73853594829777e-05,0.000150181666785136
6.07707081545927e-05,5.34434739607709e-05,6.18858087659357e-05,0.000176099990881299
2.91860012282873e-05,1.93566194737919e-05,3.83970379974717e-05,8.69396586995509e-05
4.33485235805996e-05,4.52796281348729e-05,6.93028720710136e-05,0.000157931023786486
3.93241122845183e-05,5.29971862441976e-05,9.67110199778872e-05,0.000189032318506603
2.55071503485758e-05,3.36602406305606e-05,5.51382728859374e-05,0.000114305663865074
1.65723540706462e-05,2.02201409805279e-05,4.70692854383427e-05,8.38617804895168e-05
6.31470965730248e-06,2.89845100598934e-05,5.07532433699746e-05,8.60524630871705e-05
1.34042539159252e-05,2.56619483478941e-05,4.58460900994507e-05,8.491229236327e-05
5.97411843482115e-05,4.13234965591851e-05,8.5454397764485e-05,0.000186519078671882
7.08298421036325e-05,8.92086843514036e-05,0.000110304299486157,0.000270342825941193
0.000104355664797765,0.000134637802700796,0.000151772611439198,0.000390766078937759
0.000126891950016518,0.00040289746851539,0.000300410655424134,0.000830200073956041
0.000109881690326659,0.000204565691063925,0.000250914889251999,0.000565362270642582
8.72976299028968e-05,0.000147422417447468,0.000161610919630224,0.000396330966980589
0.000123135568064444,0.000187733797649703,0.000212150688753304,0.000523020054467451
6.58745381340119e-05,0.000125776531350103,0.000125140893870097,0.000316791963354212
4.11028193820062e-05,7.05577102545157e-05,9.17615847021374e-05,0.000203422114338659
5.5012966919581e-05,6.30309229365485e-05,9.42249930263554e-05,0.000212268882882485
5.5114651998772e-05,0.000171303679285009,0.000157765124776339,0.00038418345606012
4.54187967386389e-05,0.000111675229533431,0.000108237075075853,0.000265331101347924
7.29370037319736e-05,0.000215228648519411,0.00018904115243097,0.000477206804682354
9.15683197283193e-05,0.000258921532371266,0.000216166322765877,0.000566656174865463
6.92239098739913e-05,0.000122844335133086,0.000146434141167979,0.000338502386175056
0.000113764513356682,0.000368114891540733,0.000253471621577759,0.000735351026475175
6.11823047552667e-05,0.000156708877552139,0.00015855925965105,0.000376450441958456
5.38627185848313e-05,0.000161981773362009,0.000168272588532391,0.000384117080479232
5.56479895632311e-05,0.000165512088240252,0.000172216432642653,0.000393376510446136
7.39293888393826e-05,0.000275566050082758,0.000285240021518314,0.000634735460440455
0.000142203851455158,0.000267556481296257,0.000233994027067164,0.000643754359818579
0.000123166027822336,0.000290830046638883,0.000248330220971354,0.000662326295432573
5.38795699598994e-05,0.000100529254923321,0.000102117147718551,0.000256525972601772
4.03003000312191e-05,0.000231089969769543,0.000152288178416999,0.000423678448217761
2.47220977772812e-05,8.09597608247754e-05,8.01911911595965e-05,0.000185873049761653
2.52399486730994e-05,9.76015933897199e-05,6.24671813716705e-05,0.00018530872343449
2.04786148717987e-05,5.27257463009644e-05,5.87369715417387e-05,0.000131941332714502
1.99043486673508e-05,5.57365856520489e-05,6.19020096140812e-05,0.000137542943933481
2.47328969122669e-05,6.50157818658921e-05,7.56320574161302e-05,0.000165380736194289
2.29153607159264e-05,5.00541994837478e-05,5.28737047020491e-05,0.000125843264901723
2.73091884635017e-05,8.07065629548219e-05,7.05434195407101e-05,0.000178559170959034
2.7090518596265e-05,7.44631103713537e-05,6.63313698870526e-05,0.000167884998854671
2.8498140947951e-05,9.1903666962453e-05,8.30896867141498e-05,0.000203491494624554
2.86281814324158e-05,7.57931803149275e-05,6.77262322852373e-05,0.000172147594032581
2.35850632682472e-05,4.9261738110344e-05,6.8680077535294e-05,0.000141526878913885
2.19186073315249e-05,8.74746860441178e-05,6.76985843889069e-05,0.00017709187776455
2.75540444209736e-05,8.68331155568317e-05,7.35852158909602e-05,0.000187972375868765
2.73192296261451e-05,6.35939435899431e-05,8.05012770756975e-05,0.000171414450291786
3.42264387420303e-05,7.97228197700659e-05,7.92070248299542e-05,0.00019315628334205
4.86230162815541e-05,7.51241672615483e-05,8.53238734365752e-05,0.000209071056979678
2.41455357115989e-05,5.74273377144142e-05,7.42093738690209e-05,0.000155782247295034
1.99337423887526e-05,4.01612918022593e-05,4.94282172529927e-05,0.000109523251444004
2.79817222387475e-05,9.01389547183626e-05,0.000107959414432436,0.000226080091389546
3.37321843103125e-05,9.68100257915961e-05,0.000103494735036623,0.000234036945138531
2.43455239039952e-05,8.34051186937938e-05,8.63445527618472e-05,0.000194095195359636
1.96718518581859e-05,5.41216509951737e-05,6.9796362379388e-05,0.000143589865232748
2.30169364755457e-05,4.78993782163982e-05,6.88870631077006e-05,0.000139803377799644
1.97959318804283e-05,4.94092859181707e-05,8.95465623731043e-05,0.000158751780171703
4.04483327130226e-05,0.000107614701822394,8.94294189161659e-05,0.000237492453451583
4.24874109129404e-05,0.000102597499943596,9.61931301895794e-05,0.000241278041046116
5.36000481930723e-05,0.000135939804748323,0.000111120290004678,0.000300660142946073
4.07424918005122e-05,6.26538422936236e-05,7.0733305184698e-05,0.000174129639278834
3.07457978910723e-05,5.73164058759065e-05,7.42199944474946e-05,0.000162282198214473
3.98119651529499e-05,4.9739545717679e-05,7.4007068709523e-05,0.000163558579580152
2.93449269854387e-05,4.54394744085726e-05,8.40191548243417e-05,0.000158803556218353
2.69537112561356e-05,5.98548211818527e-05,8.25501129715616e-05,0.00016935864540955
3.44093155186354e-05,7.75972944087082e-05,0.000102250184896123,0.000214256794823467
3.57254420575744e-05,8.00946394403718e-05,0.000107474541331521,0.000223294622829467
7.15125005389657e-05,0.000203607274045945,0.000281993504506637,0.000557113279091547
8.01359673383869e-05,0.000189666341189224,0.000260321282133003,0.000530123590660613
7.51369974640341e-05,0.000174857039570118,0.000170554205937359,0.000420548242971511
5.86481955845254e-05,0.000108549723224868,0.000105091626744262,0.000272289545553655
4.16067930724575e-05,5.32316940254796e-05,5.64351599058149e-05,0.000151273647003752
3.4848326896021e-05,4.3825595360935e-05,4.44774813548229e-05,0.000123151403611779
3.20428663555165e-05,6.77037114556617e-05,5.38650377437965e-05,0.000153611615554975
3.17859151680043e-05,3.89731299860018e-05,5.06986262028205e-05,0.000121457671356827
3.54729273102046e-05,4.7808892590256e-05,5.05869426988258e-05,0.000133868762599286
3.92450207054107e-05,4.13922142566734e-05,6.90159647673565e-05,0.000149653199729441
5.95288146223414e-05,8.98651714471505e-05,7.38484287523449e-05,0.000223242414821837
3.06579220602665e-05,4.38238608671069e-05,4.51903540314046e-05,0.000119672136958778
3.36200657861614e-05,4.27963176440144e-05,7.2561668169853e-05,0.000148978051600029
4.21595272176323e-05,9.61407612649036e-05,0.000143235883188038,0.000281536171670573
3.41131498726388e-05,3.98860619228339e-05,9.53560008221536e-05,0.000169355212617626
3.81440478549029e-05,4.55796948478724e-05,9.05126195704288e-05,0.000174236362273204
3.63216935053544e-05,3.83291101101655e-05,8.29793450904704e-05,0.00015763014870599
3.19300798905475e-05,5.69940400322301e-05,6.19718956550638e-05,0.000150896015577841
2.89605686249734e-05,6.81633536293136e-05,7.41917782777522e-05,0.000171315700532039
5.26084484525045e-05,5.43371172853515e-05,8.50120250082074e-05,0.000191957590746063
5.44342474595675e-05,0.000106457276557612,9.9447987021955e-05,0.000260339511039135
4.26832281131678e-05,7.62132628422269e-05,7.4233237145949e-05,0.000193129728101344
4.37725384305416e-05,0.00017046718263405,0.000107841350406703,0.000322081071471295
3.85304639039062e-05,9.47265636992896e-05,0.000102257713214088,0.000235514740817284
3.56829674011484e-05,9.70184429268214e-05,0.000104001306881164,0.000236702717209134
3.44399756144607e-05,0.000118362204797077,0.000111333415427871,0.000264135595839408
0.000100543184084199,0.000136354987285604,0.000147765430354084,0.000384663601723887
5.51668525235618e-05,0.000135451376974579,0.00018081232599807,0.00037143055549621
3.15632349620233e-05,7.98854499332371e-05,7.81224278134789e-05,0.000189571112708739
2.97226316715987e-05,6.33198187946603e-05,6.66241084631205e-05,0.000159666558929379
6.24752348126752e-05,0.0001374557098427,0.000156553810064561,0.000356484754719936
8.35564849704654e-05,9.2071237195993e-05,0.000130716797957957,0.000306344520124415
5.66229611082796e-05,5.81962428190949e-05,9.90553380506706e-05,0.000213874541978045
7.25979550583229e-05,0.000100227226039507,0.000217103983403031,0.000389929164500861
0.00010443095049352,0.000233984866842972,0.000206115845822506,0.000544531663158998
6.19422771104652e-05,0.000133115061181701,0.000120212848674192,0.000315270186966358
5.10596761952375e-05,9.74995549139824e-05,0.000135988540135076,0.000284547771244296
5.57926805132095e-05,8.25985579828215e-05,0.000116365048190302,0.000254756286686333
4.68211928692105e-05,6.15352874861427e-05,8.13779259105532e-05,0.000189734406265906
3.95724200533009e-05,3.76849482437211e-05,6.72214179741732e-05,0.000144478786271195
3.62980644966091e-05,3.7121644970181e-05,5.59809510600285e-05,0.000129400660526819
5.38161374335595e-05,7.61316374669072e-05,0.000108879914675267,0.000238827689575734
6.45586099234892e-05,5.55761038754113e-05,9.51597541643248e-05,0.000215294467963225
5.51651735825811e-05,5.36028262062697e-05,7.30657507003929e-05,0.000181833750489244
5.24644242522053e-05,4.60956586759482e-05,6.54444208689129e-05,0.000164004503797066
4.85003700912238e-05,4.83581471642366e-05,9.33714447514756e-05,0.000190229962006936
4.31974282870075e-05,2.53340942474386e-05,4.13689878743807e-05,0.000109900510408827
1.58174275934339e-05,1.53596705159947e-05,3.70203256609774e-05,6.8197423770406e-05
7.10625252428777e-06,9.99059830372592e-06,2.00249950850344e-05,3.71218459130481e-05
5.67247295660865e-06,5.74517687238201e-06,1.2041229922377e-05,2.34588797513677e-05
2.1796587269086e-05,2.78043031606804e-05,4.23457355732674e-05,9.19466260030339e-05
3.02107511693199e-05,2.87760069595492e-05,4.40492682391778e-05,0.000103036026368047
4.10144343300267e-05,2.89940000881858e-05,6.39994957085125e-05,0.000134007930126725
2.73488317996884e-05,1.70361421493239e-05,4.3821745816206e-05,8.82067197652182e-05
4.64054383178695e-05,3.12661719965464e-05,5.6463091525082e-05,0.000134134701839498
5.42224063603737e-05,3.23491407910582e-05,5.7066560277262e-05,0.000143638107428694
3.28445880583652e-05,1.78716613734224e-05,5.28135444588423e-05,0.00010352979389063
3.0077235413479e-05,2.50480650098049e-05,4.63058701759464e-05,0.00010143117059923
2.56402296759733e-05,1.43085136403294e-05,3.21863549375195e-05,7.21350982538223e-05
3.92815230833808e-05,1.93420793469984e-05,5.98131378076019e-05,0.000118436740237981
3.9084660839172e-05,2.5381454767418e-05,4.4751195469875e-05,0.000109217311076465
3.91259126257225e-05,1.79726021605745e-05,3.26481751030159e-05,8.9746689889313e-05
6.33183277842082e-05,4.50569265814508e-05,7.88240363401969e-05,0.000187199290705856
3.01428976386988e-05,1.99785774995423e-05,4.1270879295517e-05,9.13923544337581e-05
1.77692183789001e-05,1.44958073246534e-05,4.69929992740333e-05,7.92580249775869e-05
0.00014381907910549,0.000132595475692483,0.000266246337372317,0.00054266089217029
2.32949805102819e-05,1.81373648358972e-05,3.64005593797192e-05,7.78329047258984e-05
1.36094721139026e-05,7.67939957239846e-06,2.63464303890353e-05,4.76353020753364e-05
5.27730728107903e-06,3.2878618734833e-06,1.31138716797771e-05,2.16790408343395e-05
4.98524827547721e-06,3.70741975417442e-06,1.29556927262021e-05,2.16483607558537e-05
4.96445828715747e-05,2.20993992546016e-05,4.00166150407281e-05,0.000111760597166904
0.000148089581857817,7.13650396898017e-05,0.000110994245879324,0.000330448867426942
0.000191068484636922,0.000115523347738055,0.000161824006252823,0.0004684158386278
0.000406111254553146,0.000875528691802382,0.000513060870960354,0.00179470081731588
0.000221235197526995,0.000117092101717859,0.000292143531092654,0.000630470830337508
0.000376710830263637,0.00121527523588657,0.000670283154594533,0.00226226922074474
0.000870089704312629,0.00425132111112517,0.00307002674446846,0.00819143755990626
0.000834233109294411,0.00514736096877346,0.00408030868719622,0.0100619027652641
0.00109319318524215,0.00516162178697174,0.00411323343867906,0.0103680484108929
0.00167549928540545,0.006952700034556,0.00576380917885414,0.0143920084988156
0.000860242116995557,0.00635731181931406,0.00348807990970827,0.0107056338460179
0.000874667650906299,0.0071085503424365,0.00444650343494554,0.0124297214282883
0.00142107898586986,0.00645088926794717,0.005146352816327,0.013018321070144
0.00178832472153815,0.00724098802305625,0.00738673974852215,0.0164160524931165
0.00210117666526604,0.00665297518133399,0.00645540865117558,0.0152095604977756
0.00157391275274249,0.00654393650558004,0.00669648591661072,0.0148143351749332
0.00198059998206259,0.00793394491309857,0.00811120695647669,0.0180257518516378
0.00184875735191358,0.00892330605162387,0.00783917237521503,0.0186112357787525
0.00122060076052574,0.00562082316739549,0.0041014181814963,0.0109428421094175
0.000969718304824898,0.00192539654633823,0.00122766112628847,0.00412277597745159
0.00258427793300123,0.0070921782504609,0.00787368099156723,0.0175501371750294
0.000755959792145636,0.0060548186638353,0.00457610839522142,0.0113868868512024
0.000524698181145705,0.00501624981414913,0.00297992316444134,0.00852087115973618
0.00054360019717636,0.00577839648993783,0.00347462113982668,0.00979661782694087
0.000884344288217633,0.00648714244073173,0.00431817842119115,0.0116896651501405
0.0010473049390286,0.00444300390813289,0.00301040088473895,0.00850070973190044
0.000783791987730922,0.00477290962493941,0.00249962503766161,0.00805632665033194
0.00113396410614304,0.00608903130173123,0.00397133637989409,0.0111943317877684
0.00121236322681134,0.00642792296020897,0.0052408228672794,0.0128811090542997
0.000937531188183164,0.00725254961162031,0.00384211860937141,0.0120321994091749
0.000404868704057732,0.00282407123912013,0.00121570358904312,0.00444464353222098
0.000368953026363828,0.00161094738215634,0.00079088047265004,0.0027707808811702
0.00051970902934864,0.0030201288850006,0.00109608418288601,0.00463592209723525
0.000338955813231331,0.00123044220161209,0.000486070683402552,0.00205546869824597
0.000382315774213768,0.00231041620740528,0.000899353937717499,0.00359208591933655
0.000374415161356583,0.00161759087529475,0.000614176382794838,0.00260618241944617
0.000271886035455519,0.000297764816607596,0.000193865106925824,0.000763515958988938
3.17204083315235e-05,2.28080648801983e-05,4.82184414221527e-05,0.000102746914633874
0.000117380301170563,4.88750804362445e-05,8.17907946102143e-05,0.000248046176217022
0.000150437252209367,5.02788377917636e-05,8.6561074307444e-05,0.000287277164308575
7.3317141635476e-05,3.42688103251845e-05,6.26068429371694e-05,0.00017019279489783
7.80312245244736e-06,4.11829099128675e-06,2.39592219547778e-05,3.58806353985119e-05
8.58372864028784e-06,4.59767275938468e-06,1.97662286427857e-05,3.29476300424582e-05
5.43264408055076e-06,3.3273059977213e-06,1.81471263433287e-05,2.69070764216007e-05
4.30105643365157e-06,3.04104649526537e-06,1.57941882128414e-05,2.31362911417583e-05
2.03602741301979e-05,4.13411639906472e-05,7.11363926600882e-05,0.000132837830780933
8.41581995398113e-05,0.000303116552144103,0.000149795642180895,0.000537070393864809
1.36076294777546e-05,1.31434919659727e-05,2.82947903346862e-05,5.50459117784136e-05
1.34316275672401e-05,8.18111221853143e-06,1.68633042189831e-05,3.84760440047546e-05
5.81021337868107e-06,4.92630476610118e-06,1.29587748141544e-05,2.36952929589366e-05
5.51045264407133e-06,3.91790069448797e-06,1.26887627200033e-05,2.21171160585626e-05
3.7416349818726e-06,3.53753222988788e-06,1.12251539385925e-05,1.8504321150353e-05
7.75214877668198e-06,5.34249301780322e-06,1.36750009157342e-05,2.67696427102194e-05
5.06295513309898e-06,4.13818520027224e-06,1.13881172436384e-05,2.05892575770096e-05
5.25060759558518e-06,4.11719561012209e-06,1.21685563670249e-05,2.15363595727322e-05
5.93166286814775e-06,4.13647602938687e-06,1.16350758684175e-05,2.17032147659521e-05
4.17792549199382e-06,3.95742056293892e-06,1.21609494435754e-05,2.02962954985081e-05
6.06854481203653e-06,4.70673205784211e-06,1.21811464596515e-05,2.29564233295301e-05
4.21069149586722e-06,3.40197377858741e-06,1.08000677714784e-05,1.84127330459331e-05
4.19981236595212e-06,3.60102484768633e-06,1.07514022919686e-05,1.85522395056071e-05
4.23531178837472e-06,3.41999833889575e-06,1.07594118589552e-05,1.84147219862257e-05
3.31115122738455e-06,2.84129277835607e-06,1.03195885180598e-05,1.64720325238004e-05
3.50665799796652e-06,2.97817313464951e-06,1.08687440157158e-05,1.73535751483318e-05
3.23877149735527e-05,3.33786756166336e-05,4.16065212932313e-05,0.000107372911883418
1.87858052249935e-05,2.61581935378094e-05,3.31386449258581e-05,7.80826436886609e-05
9.64606286638414e-06,9.3212488985401e-06,1.55218379265077e-05,3.44891496914319e-05
9.84260407936682e-06,8.30250944206325e-06,1.68213382052443e-05,3.49664517266744e-05
1.53906862769942e-05,7.89094227600342e-06,1.48703647150955e-05,3.81519932680931e-05
1.38837193471684e-05,7.14034218594769e-06,1.29285729439008e-05,3.39526344770168e-05
1.35971601491638e-05,7.08517843211511e-06,1.36961529857126e-05,3.43784915669915e-05
1.6039580245277e-05,8.09695989296102e-06,1.39662588372856e-05,3.81027989755236e-05
2.25996539258732e-05,1.22531744672822e-05,2.30988462647485e-05,5.79516746579039e-05
1.48699583839655e-05,1.27044898386811e-05,1.53553390157917e-05,4.29297872384383e-05
1.4481464655951e-05,1.29283076877597e-05,1.5357492913848e-05,4.27672652575587e-05
1.36041832855192e-05,1.08832190364624e-05,1.48827301187792e-05,3.93701324407608e-05
1.65717613943585e-05,1.66276787647772e-05,1.72879529729835e-05,5.04873931321192e-05
1.40913396858428e-05,9.23378569907525e-06,1.39809702847489e-05,3.73060956696669e-05
1.56682191856333e-05,8.65485539410534e-06,1.43522036136193e-05,3.8675278193358e-05
1.54688704452159e-05,8.28234889779458e-06,1.50729601028163e-05,3.88241794458267e-05
1.49099224046234e-05,7.66687169789229e-06,1.33750759061164e-05,3.59518700086321e-05
1.45598482279486e-05,9.47487521486847e-06,1.40858827544876e-05,3.81206061973047e-05
1.52080047619541e-05,9.35734894275727e-06,1.40342705072806e-05,3.85996242119919e-05
1.56969972624958e-05,9.43798231876926e-06,1.26832185421912e-05,3.78181981234563e-05
1.95534622598821e-05,1.30309902197355e-05,1.45779633753816e-05,4.71624158549992e-05
1.61765097857113e-05,1.44600697139739e-05,1.48558563075889e-05,4.54924358072741e-05
1.94239243938866e-05,1.72530927389248e-05,1.94333257485815e-05,5.61103428813929e-05
1.48006386827527e-05,1.72668910058615e-05,1.50504032975662e-05,4.71179329861804e-05
1.71933701733723e-05,1.18447856216357e-05,1.47498081026936e-05,4.37879638977016e-05
1.37664560045736e-05,1.18281861295679e-05,1.4310204192202e-05,3.99048463263435e-05
1.50247394452774e-05,1.29207294019976e-05,1.49047380718742e-05,4.28502069191492e-05
1.77992938365815e-05,1.62711111169117e-05,1.62849732119215e-05,5.03553781654147e-05
1.70591651078909e-05,1.15171949331144e-05,1.32106864887695e-05,4.17870465297747e-05
1.68581070489378e-05,1.22520099647276e-05,1.44665016176822e-05,4.35766186313477e-05
1.37258590931649e-05,9.46245069515754e-06,1.18756989313184e-05,3.50640087196409e-05
1.65788133350056e-05,1.17069860528358e-05,1.27945152290704e-05,4.10803146169118e-05
1.74946511984883e-05,9.73069840475178e-06,1.19236248050622e-05,3.91489744083023e-05
1.69994679846626e-05,9.78110457302245e-06,1.28969040565538e-05,3.96774766142389e-05
1.45001958950808e-05,7.76592776086789e-06,1.1049856456287e-05,3.33159801122357e-05
1.51675594832033e-05,7.19291971319044e-06,1.09251740049493e-05,3.3285653201343e-05
5.23764846413159e-05,5.49811181736638e-05,4.78366394391968e-05,0.000155194242254177
1.72616066311827e-05,2.92110726623348e-05,2.14062258441102e-05,6.78789051376277e-05
1.78091708568023e-05,1.76034102295304e-05,1.67396974574095e-05,5.21522785437422e-05
1.73661362345739e-05,1.3144875094391e-05,1.75049588396953e-05,4.80159701686602e-05
1.55530745213655e-05,1.24750082011268e-05,1.56117242532457e-05,4.3639806975738e-05
1.6578768739138e-05,1.00520307244161e-05,1.49420443247047e-05,4.15728437882588e-05
1.39527642751512e-05,7.8108256943565e-06,1.24671760229032e-05,3.42307659924109e-05
1.3917774164333e-05,8.76180336465218e-06,1.23509407494646e-05,3.50305182784498e-05
1.4263462121967e-05,1.23308029304186e-05,1.82465474303499e-05,4.48408124827355e-05
1.34002497809462e-05,9.91914577665598e-06,1.17900906522114e-05,3.51094862098136e-05
1.54706212716642e-05,1.06317854856802e-05,1.35591428681043e-05,3.96615496254487e-05
1.7454521860248e-05,1.50645445172075e-05,1.35716474214084e-05,4.60907137988638e-05
1.58648277162295e-05,1.31545155084794e-05,1.61411122476968e-05,4.51604554724057e-05
1.66397736090748e-05,9.84825219254825e-06,1.3199664859073e-05,3.9687690660696e-05
1.51443616155884e-05,1.27431398618421e-05,1.41513823890076e-05,4.20388838664381e-05
1.73391165924909e-05,1.45150637238992e-05,1.34280127542739e-05,4.52821930706639e-05
1.38992277094549e-05,1.16527675777864e-05,1.26180297323607e-05,3.8170025019602e-05
1.78077913185384e-05,1.45934142658006e-05,1.37623037735756e-05,4.61635093579146e-05
2.46146432183812e-05,3.55502717052438e-05,2.0177907857652e-05,8.0342822781277e-05
2.04479067032945e-05,3.94212017461281e-05,1.92066120682162e-05,7.90757205176389e-05
1.76619744283487e-05,2.23790214089338e-05,1.48827537182352e-05,5.49237495555177e-05
2.66304762990984e-05,2.7406997404131e-05,2.91471150568765e-05,8.3184588760106e-05
1.21516239256667e-05,2.25855787913013e-05,2.03434726711759e-05,5.50806753881439e-05
4.32744317118225e-06,6.83273192129867e-06,1.05215060704469e-05,2.16816811629278e-05
3.08818807433832e-06,2.52226476052414e-06,8.95103532424675e-06,1.45614881591092e-05
8.4624948250581e-06,1.01603354520901e-05,1.76052061746309e-05,3.62280364517792e-05
5.49576367369231e-06,1.03897415489696e-05,1.17363857261072e-05,2.76218909487692e-05
9.60641974607723e-06,8.20515895052754e-06,1.47977931442784e-05,3.26093718408832e-05
1.09662027440258e-05,1.64386931652677e-05,1.68695930579959e-05,4.42744889672894e-05
4.6852589184178e-06,5.06706624013574e-06,1.01194990415235e-05,1.9871824200077e-05
3.05417471895809e-06,2.59600865603413e-06,8.38174568140973e-06,1.4031929056402e-05
5.50332576044057e-06,8.79887462964292e-06,1.1976653697608e-05,2.62788540876915e-05
4.97690268518654e-06,5.74482428399866e-06,1.03311299099278e-05,2.1052856879113e-05
3.25269868840802e-06,2.82917138839084e-06,8.49983254333549e-06,1.45817026201344e-05
2.96480975873125e-06,2.52704284943833e-06,8.04436167335195e-06,1.35362142815215e-05
3.33375671520837e-06,3.12392892863206e-06,8.27121605050512e-06,1.47289016943456e-05
1.43328665857588e-05,2.28622800339591e-05,1.80666392686908e-05,5.52617858884087e-05
1.19826646206578e-05,1.35701373694819e-05,1.22920978890985e-05,3.78448998792382e-05
9.42390074486844e-06,6.13984398899309e-06,9.79760424770568e-06,2.53613489815672e-05
1.0037502164005e-05,6.4927777193291e-06,1.16388760336802e-05,2.81691559170143e-05
1.12262463923098e-05,7.92024068080863e-06,1.13621140287636e-05,3.0508601101882e-05
8.27110712880923e-06,1.40798454528476e-05,1.42417177494353e-05,3.65926703310922e-05
4.79538078585835e-06,6.24436945878993e-06,1.13043808453383e-05,2.23441310899866e-05
4.65187819642689e-06,5.76256054342606e-06,1.09464805201592e-05,2.13609192600122e-05
8.16525606384259e-06,7.51980553753458e-06,1.36573808836492e-05,2.93424424850264e-05
7.12637194030903e-06,5.71584155432433e-06,1.35454791978248e-05,2.63876926924581e-05
5.116030337104e-06,8.63919685533398e-06,1.19648801499989e-05,2.57201073424369e-05
4.08452014225704e-06,7.62263709796959e-06,1.05345264727177e-05,2.22416837129443e-05
3.97045720528135e-06,6.97909268081733e-06,1.0282534424747e-05,2.12320843108456e-05
5.49003682002399e-06,7.54446632714822e-06,1.10599343850414e-05,2.40944375322136e-05
5.00528018309785e-06,6.36683938061934e-06,1.10226541422947e-05,2.23947737060119e-05
6.78298945775429e-06,7.42106871919467e-06,1.12181353758625e-05,2.54221935528115e-05
2.63929903539503e-05,3.60061969765103e-05,3.98876215573989e-05,0.000102286808887859
5.21630786027193e-06,1.60194191704032e-05,1.51719989641743e-05,3.64077259948494e-05
6.37396237343183e-06,9.66299478601792e-06,1.35179675627297e-05,2.95549247221795e-05
3.99828363168223e-06,9.12314003925985e-06,1.22917157097318e-05,2.54131393806739e-05
4.18417340718578e-06,9.40117147094114e-06,1.26466982855982e-05,2.62320431637251e-05
3.95031423693396e-06,8.91128895586349e-06,1.19733515231112e-05,2.48349547159086e-05
6.14012434795841e-06,9.65683305001647e-06,1.3001640452976e-05,2.87985978509508e-05
5.20973830023365e-06,8.57724741331471e-06,1.26710878368107e-05,2.64580735503591e-05
4.27189854161431e-06,8.9611221029637e-06,1.33791958896324e-05,2.66122165342104e-05
3.86873920211158e-06,8.1601848144025e-06,1.16200849773968e-05,2.36490089939109e-05
4.04851129839205e-06,8.17017749289346e-06,1.13744425053389e-05,2.35931312966244e-05
4.08748196204719e-06,6.3165656906147e-06,1.14366257786662e-05,2.18406734313281e-05
4.34785059402198e-06,7.01341812122853e-06,1.05729408424911e-05,2.19342095577417e-05
4.31338116014819e-06,7.12827553689476e-06,1.12455300697237e-05,2.26871867667667e-05
3.98614411383666e-06,7.0061792857401e-06,1.09598362359752e-05,2.1952159635552e-05
6.83891174767364e-06,1.12670693324578e-05,1.40177408509038e-05,3.21237219310352e-05
6.2638154971797e-06,1.83967111900796e-05,1.65310928620342e-05,4.11916195492934e-05
5.63557740073688e-06,1.02728384409914e-05,1.16012719246983e-05,2.75096877664265e-05
4.69269229845694e-06,9.32217173716708e-06,1.18758406976915e-05,2.58907047333155e-05
4.34314791544754e-06,8.6670492001558e-06,1.1111201731485e-05,2.41213988470883e-05
6.23048059252339e-06,8.15675276776536e-06,1.20498464980839e-05,2.64370798583726e-05
4.41507477574793e-06,1.12328243084766e-05,1.20304195091108e-05,2.76783185933353e-05
4.63009327169212e-06,1.09130419866788e-05,1.21784373307666e-05,2.77215725891376e-05
7.15048190650401e-06,1.01343802489611e-05,1.23646541278023e-05,2.96495162832674e-05
2.90094884519595e-05,3.35854497906675e-05,3.16656387784982e-05,9.42605770211253e-05
4.41190336614717e-06,9.6956647480241e-06,1.18948088195569e-05,2.60023769337282e-05
5.56094832954672e-06,9.38711485174299e-06,1.39971747366086e-05,2.89452379178983e-05
3.96673189458015e-06,9.99671761670718e-06,1.21162511800509e-05,2.60797006913382e-05
3.93731425292225e-06,8.37400271072123e-06,1.15650461295971e-05,2.38763630932406e-05
3.96598169807387e-06,8.91074920049249e-06,1.19331849616491e-05,2.48099158602155e-05
3.97750814651553e-06,9.3295474320541e-06,1.18988846656999e-05,2.52059402442695e-05
3.92029377763775e-06,8.13214255442419e-06,1.09706238040077e-05,2.30230601360696e-05
7.57135658131631e-06,8.21571762189001e-06,1.20995835089312e-05,2.78866577121375e-05
9.19247362501259e-06,1.69233109390513e-05,1.6323979478236e-05,4.24397640422999e-05
4.27666777309349e-06,1.09721022081492e-05,1.20448445566521e-05,2.72936145378948e-05
3.8143680865619e-06,9.88582876483924e-06,1.11686308228121e-05,2.48688276742132e-05
3.77811805695175e-06,1.060691218908e-05,1.1950502702038e-05,2.63355329480698e-05
4.65798707381301e-06,1.05050810832951e-05,1.24928913445622e-05,2.76559595016703e-05
4.29670143224832e-06,8.92131021748613e-06,1.11459214013346e-05,2.43639330510691e-05
7.11915834586196e-06,9.34904122025133e-06,1.41079229505132e-05,3.05761225166265e-05
5.96445362586753e-06,1.10336630567641e-05,1.21616953358224e-05,2.91598120184541e-05
6.22498166246011e-06,1.555351461182e-05,1.51239441119586e-05,3.69024403862387e-05
9.94437847889984e-06,1.25453654364437e-05,1.48275767301297e-05,3.73173206454732e-05
4.45055158936226e-06,9.58234923017e-06,1.15829521645751e-05,2.56158529841073e-05
3.70420662915855e-06,7.07894648256487e-06,1.0273172498637e-05,2.10563256103605e-05
3.99803669475052e-06,1.20800823164561e-05,1.18589392623777e-05,2.79370582735843e-05
7.78775221643185e-06,1.11902493682396e-05,1.30054871444903e-05,3.19834887291618e-05
5.74048721634825e-06,1.07621117098767e-05,1.21302225352698e-05,2.86328214614948e-05
5.2914653748898e-06,1.48411249231062e-05,1.3052160846218e-05,3.3184751144214e-05
4.26280322888905e-06,1.09097219796292e-05,1.11946052361013e-05,2.63671304446196e-05
4.79745442558904e-06,1.74171063570677e-05,1.37574166850886e-05,3.59719774677453e-05
4.01374021153682e-06,9.80610287118132e-06,1.05738958515358e-05,2.4393738934254e-05
4.32236755213542e-06,1.07917716100544e-05,1.13515649671159e-05,2.64657041293058e-05
3.94841445835835e-06,8.85069424488108e-06,1.0393399863067e-05,2.31925085663065e-05
4.01712704617521e-06,9.91907344303453e-06,1.0890266139535e-05,2.48264666287447e-05
3.73236125564268e-06,8.1005066728688e-06,1.04353689855744e-05,2.22682369140859e-05
4.07601364204262e-06,8.88137956525735e-06,1.02638008299452e-05,2.32211940372452e-05
4.04462284363872e-06,7.14836919594269e-06,1.01674836159645e-05,2.13604756555459e-05
4.006000132841e-06,7.57560423568883e-06,9.94830677709833e-06,2.15299111456282e-05
4.02484658287396e-06,7.83163116203339e-06,9.83937120810025e-06,2.16958489530076e-05
4.03402622049753e-06,1.03855125277624e-05,1.13613887410536e-05,2.57809274893135e-05
4.07738881394693e-06,1.25407909431847e-05,1.15180535954275e-05,2.81362333525592e-05
4.11619511230914e-06,1.33732508709928e-05,1.22875002493296e-05,2.97769462326315e-05
4.45723895448891e-06,1.16214903155186e-05,1.14696437311368e-05,2.75483730011444e-05
3.98767809327075e-06,1.11997275815969e-05,1.09562799378236e-05,2.61436856126912e-05
4.17046006067465e-06,9.62346922918224e-06,1.10107563331813e-05,2.48046856230382e-05
4.44689958056989e-06,9.8408084159072e-06,1.09925056437234e-05,2.52802136402005e-05
8.84124313646722e-06,1.48641370116654e-05,1.36174188894726e-05,3.73227990376053e-05
3.87425756304062e-06,1.33322928785578e-05,1.10669654221886e-05,2.8273515863787e-05
4.06345088164219e-06,1.4044471473177e-05,1.07263475916212e-05,2.88342699464405e-05
3.90522863525124e-06,1.12848859173048e-05,1.01447262201071e-05,2.53348407726631e-05
5.35238608757847e-06,1.51580707957349e-05,1.18153589470471e-05,3.23258158303604e-05
4.47837753733354e-06,1.13524561698245e-05,1.12424936978315e-05,2.70733274049896e-05
4.66979215424867e-06,1.29752191445605e-05,1.1386348863231e-05,2.90313601620401e-05
4.02674230799767e-06,1.00816685157002e-05,1.09225931370828e-05,2.50310039607807e-05
4.27042203763618e-05,3.30099800210359e-05,5.21688836675262e-05,0.000127883084064924
5.2262791204989e-06,8.83472198502723e-06,1.26239508669453e-05,2.66849519724714e-05
4.93643395945249e-06,6.94898256300038e-06,9.41764568678291e-06,2.13030622092358e-05
4.97313183349872e-06,5.35992527073214e-06,9.49762278914529e-06,1.98306798933762e-05
1.11555677553265e-05,2.51098532035687e-05,2.29523414114477e-05,5.92177623703429e-05
9.09614815039412e-06,1.77695661256305e-05,1.55274369385192e-05,4.23931512145439e-05
1.90783149714382e-05,1.88977863076869e-05,1.8853390121068e-05,5.68294914001932e-05
8.38778546752697e-06,1.23325652255372e-05,1.65248575739634e-05,3.72452082670275e-05
6.81144702464489e-06,1.00536485727999e-05,1.35663952213257e-05,3.04314908187705e-05
5.20362762998966e-06,1.12907259396541e-05,1.39225757672543e-05,3.0416929336898e-05
7.52168480999433e-06,8.73099970495802e-06,1.43472950444783e-05,3.05999795594306e-05
1.31138260244528e-05,1.77155989152837e-05,1.87372609820054e-05,4.9566685921742e-05
4.24048164183714e-06,7.19956848260133e-06,1.10887119227839e-05,2.25287620472224e-05
3.76444958788649e-06,7.32300595693092e-06,9.43242843057971e-06,2.05198839753971e-05
5.836618943433e-06,1.02573659569e-05,1.43264598090065e-05,3.04204447093395e-05
3.54137590114835e-06,6.71093172507403e-06,1.02780487441127e-05,2.05303563703351e-05
3.67603420041808e-06,6.85545120145232e-06,1.02646140833775e-05,2.07960994852479e-05
5.38451146469066e-06,5.96480818909018e-06,1.16976257940302e-05,2.30469454478111e-05
7.13625648733843e-06,1.54039049276398e-05,1.44540550658006e-05,3.69942164807789e-05
5.27490405957479e-06,7.56541823318977e-06,1.10637812996846e-05,2.39041035924491e-05
5.19068780374401e-06,7.0404651975471e-06,1.10021710762067e-05,2.32333240774978e-05
5.18819709239705e-06,7.83982768873066e-06,1.11531677237498e-05,2.41811925048775e-05
8.6775472285029e-06,1.11041672942177e-05,1.41496548071974e-05,3.3931369329918e-05
8.28775763531479e-06,1.54991893320837e-05,1.66415817840099e-05,4.04285287514083e-05
9.29240364500398e-06,1.8558591489528e-05,1.64809057938232e-05,4.43319009283551e-05
5.65923198491267e-06,1.30976078015889e-05,1.40952399936519e-05,3.28520797801535e-05
4.92513547671169e-06,6.79957694382472e-06,1.19746233376678e-05,2.36993357582042e-05
9.16264890095007e-06,1.02006164748041e-05,1.363057889465e-05,3.29938442704042e-05
1.27511835609903e-05,1.21485092806092e-05,1.76783142563856e-05,4.25780070979851e-05
6.73140615654328e-06,1.30630616819419e-05,1.4225515164675e-05,3.40199830031602e-05
5.80871236829461e-06,1.03331960255154e-05,1.2849264829993e-05,2.8991173223803e-05
6.94067648084283e-06,1.30286546869079e-05,1.45352259967247e-05,3.45045571644754e-05
8.89959994533876e-06,1.12087429946841e-05,1.47649516320304e-05,3.48732945720533e-05
4.16769144423204e-06,4.66391871376799e-06,9.94481217487999e-06,1.877642233288e-05
3.54922592074706e-06,6.09165918772973e-06,1.00928707885437e-05,1.97337558970205e-05
3.4660784511307e-06,5.44620875125236e-06,1.02575110619738e-05,1.91697982643569e-05
9.51274581357752e-06,1.54999509003936e-05,1.65651929688357e-05,4.15778896828068e-05
5.07095031357308e-06,9.86712463263098e-06,1.16771868799364e-05,2.66152618261404e-05
4.18794921758888e-06,7.69654066172256e-06,1.16827091396767e-05,2.35671990189882e-05
9.19965900677134e-06,7.98762984297291e-06,1.21524169994633e-05,2.93397058492076e-05
6.84345395324619e-06,1.21220140641019e-05,1.26633713418923e-05,3.16288393592404e-05
1.08136329908881e-05,1.56942064935254e-05,1.51713084577388e-05,4.16791479421523e-05
4.86005083907126e-06,4.1062814834329e-06,9.11233010304161e-06,1.80786624255458e-05
5.60939415279125e-06,4.35077480263316e-06,9.72142707981007e-06,1.96815960352345e-05
1.03188360738173e-05,9.85666464449184e-06,1.69581925085241e-05,3.71336932268332e-05
8.85884138752649e-06,1.19967125577525e-05,1.74801715901882e-05,3.83357255354672e-05
3.89009640138272e-06,5.44552982643342e-06,9.78617003845701e-06,1.91217962662731e-05
3.66447369658567e-06,5.14158759731227e-06,9.85056463941977e-06,1.86566259333177e-05
3.6806208509097e-06,4.7033042392173e-06,9.21961312999035e-06,1.76035382201173e-05
3.75456710530226e-06,4.62811506388772e-06,9.1972847764717e-06,1.75799669456617e-05
3.80383950369288e-06,4.96226260512016e-06,9.39086878387507e-06,1.81569708926881e-05
1.49507860266415e-05,1.94122987111778e-05,2.20800933500405e-05,5.64431780878598e-05
1.78453516629353e-05,8.10910806424381e-06,1.64761408671495e-05,4.24306005943287e-05
4.68554721292097e-06,3.35110369107329e-06,1.01622615963828e-05,1.8198912500377e-05
4.0880962683633e-06,3.00279784589873e-06,9.11700057467087e-06,1.62078946889329e-05
9.58610366392629e-06,8.66029414986237e-06,1.06474604919913e-05,2.889385830578e-05
3.53548112562149e-06,2.97667465965801e-06,8.39905744191497e-06,1.49112132271945e-05
7.91594130125425e-06,7.85212605565754e-06,1.42123603674057e-05,2.99804277243175e-05
4.89831736193917e-06,3.37743768752227e-06,9.3975600532359e-06,1.76733151026973e-05
7.67684320334888e-06,1.21310117811313e-05,1.14457591183799e-05,3.12536141028601e-05
1.02035173652897e-05,9.67856876830939e-06,1.09486712280794e-05,3.08307573616785e-05
9.25183993581791e-06,1.09738703436397e-05,1.03221050291119e-05,3.05478153085695e-05
1.03195490194791e-05,1.08197601895547e-05,1.23864962942027e-05,3.35258055032365e-05
1.10036608882843e-05,1.08271235491052e-05,1.25639618298658e-05,3.43947462672552e-05
1.19735101189839e-05,1.07879341348834e-05,1.30772054923558e-05,3.58386497462231e-05
1.56138306024492e-05,1.08698688369897e-05,1.3956165358406e-05,4.04398647978448e-05
5.62800195666765e-06,4.41380106309214e-06,1.07888867782676e-05,2.08306897980273e-05
5.59087603841352e-06,4.77056395982144e-06,1.09573706660041e-05,2.1318810664239e-05
2.68456702744168e-05,1.98623592248993e-05,2.54760279002112e-05,7.21840573995273e-05
2.03181568193072e-05,1.42175433050634e-05,2.3178020871763e-05,5.77137209961335e-05
5.74446245412796e-06,4.68813279803336e-06,1.54594780584161e-05,2.58920733105774e-05
1.09163333029213e-05,1.43838804447386e-05,1.79095127037682e-05,4.32097264514281e-05
1.31378630562063e-05,1.42804393321907e-05,2.30329254653459e-05,5.0451227853743e-05
1.26414700141494e-05,7.09528159318178e-06,1.58984355156634e-05,3.56351871229946e-05
3.73201416319174e-06,2.87628305971836e-06,8.99214518170709e-06,1.56004424046172e-05
3.76899678730382e-06,2.91348213864261e-06,8.57648214788176e-06,1.52589610738282e-05
3.85575866899556e-06,2.94132984856407e-06,8.8931720252088e-06,1.56902605427684e-05
6.32347776043102e-06,4.19522074584674e-06,1.07950540401946e-05,2.13137525464724e-05
3.34909465856829e-06,2.73603827218527e-06,8.112960053169e-06,1.41980929839226e-05
3.09862518496258e-06,2.60077412897581e-06,8.01820341306636e-06,1.37176027270048e-05
3.09767021531337e-06,2.52607312261639e-06,8.01647499545297e-06,1.36402183333827e-05
3.75883636712116e-06,2.92875184857316e-06,7.7007772016711e-06,1.43883654173654e-05
4.5405784636649e-06,3.66525650532157e-06,9.11823848857381e-06,1.73240734575603e-05
4.08579589262353e-06,3.09382832767715e-06,8.36624590780667e-06,1.55458701281074e-05
3.82871445805352e-06,3.00567934236964e-06,8.51989311988018e-06,1.53542869203033e-05
3.69905322094177e-06,2.87456200984919e-06,7.91971662358395e-06,1.44933318543749e-05
4.40129388412137e-06,3.11811608045721e-06,8.4302914663454e-06,1.5949701430924e-05
3.91922572726895e-06,3.00669827707812e-06,8.33469282888014e-06,1.52606168332272e-05
3.54033088583058e-06,2.74263907918867e-06,8.48391508953354e-06,1.47668850545528e-05
3.35197906996224e-06,2.55600079484798e-06,8.23261661655202e-06,1.41405964813622e-05
7.93311419185066e-06,8.93371906863614e-06,1.14773401265141e-05,2.83441733870009e-05
3.62734125782937e-06,2.85559196368579e-06,8.31385590257458e-06,1.47967891240897e-05
3.44197152900716e-06,2.91316099234626e-06,8.08160156195951e-06,1.44367340833129e-05
5.8716387046583e-06,3.64952114882881e-06,1.01167665520548e-05,1.96379264055419e-05
3.81500762697429e-06,3.14081787080967e-06,8.53545706890496e-06,1.54912825666889e-05
3.40978653502665e-06,2.9006760423016e-06,7.9315612074976e-06,1.42420237848258e-05
3.41802276637287e-05,5.57138671522071e-05,6.76163460994627e-05,0.000157510440915399
2.24868194710836e-05,1.43946521520194e-05,2.39570390982846e-05,6.08385107213876e-05
6.98061453571846e-06,4.11860265162306e-06,1.34779906012855e-05,2.4577207788627e-05
0.000125627705313597,0.000146628630116966,0.000124835241459572,0.000397091576890135
9.51872458615124e-05,6.18299373723216e-05,9.56151237822049e-05,0.000252632307016039
6.05801480160532e-05,2.47348773307613e-05,9.25886915409782e-05,0.000177903716887793
0.000224694696569451,0.000165674018175327,0.000234952989973821,0.000625321704718599
0.000667584151151318,0.00291343249061365,0.00137399585853879,0.00495501250030376
0.000465458570449082,0.00329042058337802,0.00156843559803179,0.00532431475185889
0.000391788117637704,0.00257042286721725,0.00117563575337851,0.00413784673823347
0.000292985618355312,0.00109808469491489,0.00055200275323092,0.00194307306650112
0.000317963594071178,0.00151565647201523,0.000624330100903107,0.00245795016698951
0.000639543330251304,0.00264588870291728,0.00167234905655345,0.00495778108972203
0.000293441528884779,0.000856018103437716,0.000540808291245647,0.00169026792356814
5.02052210279312e-05,4.07553001653376e-05,0.000297427451871527,0.000388387973064796
1.87231162783343e-05,1.46671906474725e-05,0.000102528909899085,0.000135919216824892
8.77812685744662e-06,7.06409702502193e-06,5.54844720728808e-05,7.13266959553493e-05
7.7914618033379e-06,5.73478313065934e-06,4.20534023083279e-05,5.55796472423252e-05
6.33770895325979e-06,4.80416003800918e-06,2.69086596309194e-05,3.80505286221884e-05
6.74908145722945e-06,5.6123655492164e-06,2.82068662551761e-05,4.0568313261622e-05
5.78819472149192e-06,4.69335815236625e-06,2.48899120740496e-05,3.53714649479077e-05
5.38847815528272e-06,4.30171085148507e-06,2.32797930487499e-05,3.29699820555176e-05
5.559394365462e-06,4.95941528694131e-06,2.01290445726996e-05,3.06478542251029e-05
4.74621418096828e-06,4.32818552698133e-06,1.95249955657902e-05,2.85993952737398e-05
4.47712001062943e-06,4.15318953054481e-06,1.7619373825699e-05,2.62496833668733e-05
4.89704411050755e-06,4.26659458552828e-06,1.89896375125707e-05,2.81532762086065e-05
5.14756526666257e-06,4.26295108457652e-06,1.91243234097874e-05,2.85348397610265e-05
4.94239053917741e-06,4.21773793871327e-06,1.84905517303474e-05,2.76506802082381e-05
7.87305546954284e-06,1.19431324985473e-05,4.00930403351028e-05,5.99092283031929e-05
4.99117821853256e-06,4.44152096289562e-06,1.89947958415862e-05,2.84274950230143e-05
4.91695262133453e-06,4.29425270506996e-06,1.90182950201785e-05,2.8229500346583e-05
5.41297062136815e-06,4.3052395002238e-06,1.76073974801027e-05,2.73256076016946e-05
9.07373181467469e-06,6.28445176420208e-06,1.98340578762903e-05,3.51922414551671e-05
1.11408403498072e-05,8.5702508284869e-06,2.75181034197236e-05,4.72291945980178e-05
4.23448030407022e-06,3.94310426804063e-06,1.73657721123758e-05,2.55433566844866e-05
3.65469183726422e-06,3.6213381259656e-06,1.70082368440593e-05,2.42842668072891e-05
3.87662787920694e-06,3.55572803258763e-06,1.75006316508255e-05,2.493298756262e-05
3.96434267082482e-06,3.61238547234437e-06,1.75786768639445e-05,2.51554050071137e-05
3.78382129055206e-06,3.46216175974772e-06,1.60572740267113e-05,2.33032570770111e-05
3.7844073451523e-06,3.86590585663912e-06,1.7644132471258e-05,2.52944456730494e-05
3.50247514107385e-06,3.56619594549078e-06,1.63990982240604e-05,2.3467769310625e-05
4.12816279162733e-06,3.91427511554938e-06,1.65727172651178e-05,2.46151551722946e-05
4.94217097185565e-06,4.13641553255863e-06,1.75705919079374e-05,2.66491784123517e-05
3.71576720480499e-06,3.66879639079449e-06,1.69856965183276e-05,2.43702601139271e-05
6.23414183774385e-06,6.66263202396596e-06,2.41910867259658e-05,3.70878605876756e-05
5.3248575340917e-06,4.61109807368536e-06,2.14199469688357e-05,3.13559025766127e-05
1.35083526483497e-05,1.3515791194056e-05,3.6779320750191e-05,6.38034645925968e-05
8.82243176928318e-06,9.77956646818159e-06,3.60185719598116e-05,5.46205701972764e-05
1.49905547839041e-05,8.83746476857867e-06,4.45828564286933e-05,6.84108759811761e-05
3.67046887698503e-06,3.42275885519807e-06,1.95948310613963e-05,2.66880587935794e-05
3.90724476247818e-06,3.81010842386632e-06,1.74561270237723e-05,2.51734802101168e-05
5.92584812218764e-06,5.43736132867523e-06,2.08753311303927e-05,3.22385405812556e-05
6.65604985692918e-06,5.8107453936424e-06,2.22818900743857e-05,3.47486853249572e-05
3.84463890321214e-06,3.42468087335495e-06,1.85383899557007e-05,2.58077097322678e-05
2.6285658698394e-05,1.81241124598473e-05,5.41645444547721e-05,9.85743156130134e-05
1.44769415305807e-05,9.7862230889834e-06,3.30692016486931e-05,5.73323662682572e-05
6.58424253115954e-06,6.78816078337922e-06,2.75062014686675e-05,4.08786047832063e-05
2.83196022756859e-05,1.76421677584371e-05,4.95201091788483e-05,9.54818792129714e-05
7.76488197884463e-05,7.82806564600135e-05,0.00010961455566845,0.00026554403191691
3.62319312003481e-05,3.35613174044398e-05,6.98897532550261e-05,0.000139683001859814
3.01968309329116e-05,3.19031757462277e-05,7.38334271870754e-05,0.000135933433866215
0.000263187101491984,0.000405962384597933,0.000341094808914417,0.00101024429500433
0.000187696293554226,0.000101823613445998,0.000146473587434428,0.000435993494434652
0.000152955005918678,0.000461108513293464,0.000211468127768777,0.000825531646980919
9.51019619495543e-05,0.000298821628613752,0.000166044591429923,0.00055996818199323
4.86405364897758e-05,2.85170486462508e-05,8.29728724063142e-05,0.000160130457542341
5.78187295229748e-05,4.95114028181935e-05,9.31121993380991e-05,0.000200442331679267
0.000163762218034048,0.000171267025158963,0.000184941901324122,0.000519971144517133
4.56982246210683e-05,3.74564249106809e-05,7.53229229754163e-05,0.000158477572507166
3.47871079695425e-05,2.20540007860811e-05,5.45750023132883e-05,0.000111416111068912
3.65296017313412e-05,3.51612483032734e-05,4.0365292129864e-05,0.000112056142164479
4.6101656832657e-05,5.95775193317466e-05,5.75788690452271e-05,0.000163258045209631
6.80771678650315e-05,9.48454561403672e-05,6.50693946474618e-05,0.00022799201865286
4.227768215476e-05,0.00011110377539393,6.74287292965465e-05,0.000220810186845237
9.99586688908081e-05,0.000134415317989026,0.000100521808083212,0.000334895794963045
0.000267676318420808,0.000433365534696177,0.000204080470740702,0.000905122323857687
3.6093055599803e-05,2.13918689686915e-05,4.20304504981415e-05,9.9515375066636e-05
4.7436823448959e-05,2.61881832160043e-05,7.40188300883055e-05,0.000147643836753269
8.52151316943612e-05,5.51366839281053e-05,8.57879397736091e-05,0.000226139755396076
6.90499779566929e-05,3.23532049880612e-05,8.0924502187324e-05,0.000182327685132078
1.68284815562589e-05,1.13176692893014e-05,3.87321399281173e-05,6.68782907736776e-05
2.15284307577786e-05,1.89386432256508e-05,4.99244029647894e-05,9.03914769482188e-05
4.21497760086712e-05,3.02171388470632e-05,5.16337897079032e-05,0.000124000704563638
1.0971504933022e-05,7.56487558670232e-06,2.97497202707176e-05,4.8286100790442e-05
9.95393019245686e-06,7.44167752271122e-06,2.80199919375225e-05,4.54155996526906e-05
1.10773920943634e-05,9.65377810555153e-06,2.94724373317423e-05,5.02036075316572e-05
2.66064805690207e-05,1.47207727320882e-05,4.08144570991844e-05,8.21417104002933e-05
1.6411265142598e-05,1.2173096648199e-05,2.93089080408366e-05,5.78932698316335e-05
2.32998036658747e-05,1.61436103039166e-05,3.90867542140341e-05,7.85301681838255e-05
2.54960294404026e-05,1.24730604578781e-05,3.54343424064082e-05,7.34034323046889e-05
6.27245733470708e-05,4.37155247367889e-05,6.41903566781258e-05,0.000170630454761986
9.68862410574014e-05,0.00039337311557435,0.000150341001809811,0.000640600358441562
7.10789380934498e-05,4.25831481298787e-05,9.28338689700418e-05,0.00020649595519337
1.68378570014751e-05,9.87610213743573e-06,4.05771848302768e-05,6.72911439691876e-05
3.80175337864161e-05,5.43345536059919e-05,5.10991775254725e-05,0.00014345126491788
0.000269150678305459,0.000198693865200319,0.000161718535028672,0.000629563078534449
5.86880382107753e-05,5.24116251093661e-05,6.01888530656066e-05,0.000171288516385748
8.17739838047569e-05,6.44737016897003e-05,9.25966142155937e-05,0.000238844299710051
2.72699117771142e-05,1.33005568099631e-05,2.1702370467995e-05,6.22728390550724e-05
6.4086324165249e-06,4.71820453940877e-06,1.29492869738363e-05,2.407612392977e-05
4.38499700786914e-06,3.77057965322243e-06,1.14509157369652e-05,1.96064923980568e-05
2.00226301063785e-05,9.39965080910438e-06,2.25241749922337e-05,5.19464559077166e-05
4.0363560885866e-06,3.51778541090023e-06,1.12213925762192e-05,1.8775534075706e-05
4.04220074867966e-06,3.40904598347779e-06,1.07730158362444e-05,1.82242625684018e-05
8.18914468861157e-06,5.94860975599432e-06,1.1806237828889e-05,2.59439922734948e-05
6.7865293821996e-06,5.8751371175713e-06,1.17358886440202e-05,2.4397555143791e-05
3.69575881233832e-06,3.22757497874029e-06,9.63879267825158e-06,1.65621264693302e-05
7.73639336293353e-06,7.31599800909636e-06,1.13697694710971e-05,2.6422160843127e-05
4.30557056829308e-06,3.64979713049088e-06,1.03865637828209e-05,1.83419314816048e-05
3.7950012165444e-06,3.30033398770991e-06,1.02352624599341e-05,1.73305976641884e-05
4.30512949411243e-06,3.6946081533152e-06,9.61705554953132e-06,1.76167931969589e-05
4.17455024881382e-06,3.42229217943836e-06,1.00110307791739e-05,1.76078732074261e-05
4.06829453718601e-06,3.33159299371441e-06,1.04669811671962e-05,1.78668686980966e-05
3.57457796509561e-06,3.32971131568847e-06,1.0138182281754e-05,1.70424715625381e-05
4.41901278092641e-06,3.66260050540483e-06,1.02368161148647e-05,1.8318429401196e-05
3.9271971685022e-06,3.26828178466112e-06,9.8457225032258e-06,1.70412014563891e-05
3.84681418100301e-06,3.48737330561865e-06,9.93434532671124e-06,1.72685328133329e-05
4.17050682701215e-06,3.37605071457374e-06,1.01581474023691e-05,1.7704704943955e-05
1.82303434186981e-05,1.08636198522625e-05,1.69062573066707e-05,4.60002205776313e-05
5.50956065185538e-06,3.90850509314139e-06,1.14724429358982e-05,2.0890508680895e-05
4.19577854617781e-06,4.36188569313828e-06,1.13098766404691e-05,1.98675408797852e-05
4.89434788011376e-06,6.50656022172014e-06,1.07292593905938e-05,2.21301674924277e-05
4.1921166150338e-06,4.05245494734236e-06,1.07700972278491e-05,1.90146687902253e-05
8.06889303675623e-06,9.17460065559309e-06,2.88008214308836e-05,4.60443151232329e-05
6.43600890357836e-06,3.97399860236939e-06,1.05736485181198e-05,2.09836560240676e-05
4.42397435148537e-06,3.77174848025828e-06,1.04280741700931e-05,1.86237970018367e-05
4.03178840025205e-06,3.76490968769676e-06,1.0723689734476e-05,1.85203878224248e-05
4.71518930095643e-05,4.12121482522585e-05,8.95173317391465e-05,0.000177881373000969
1.30123863640539e-05,1.16308436403524e-05,1.76870298235189e-05,4.23302598279252e-05
8.79148198523837e-06,6.95365757274169e-06,1.57756318923325e-05,3.15207714503125e-05
3.88567575881516e-06,3.78925142053278e-06,9.71336024224496e-06,1.73882874215929e-05
4.1483177437458e-06,4.24976057245915e-06,1.07112109573194e-05,1.91092892735244e-05
5.54961864728939e-06,3.83982117079219e-06,1.0365341504291e-05,1.97547813223726e-05
1.42169789733206e-05,6.14576296624763e-06,1.69822201465064e-05,3.73449620860746e-05
4.23453244800419e-06,3.88474283191281e-06,1.00510597205188e-05,1.81703350004358e-05
4.08361387081956e-06,3.83735989403832e-06,9.30936711398681e-06,1.72303408788447e-05
4.61345621701726e-06,4.73242865507672e-06,1.02749019769009e-05,1.96207868489949e-05
4.21520484996821e-05,4.02901910192914e-05,5.09904696406542e-05,0.000133432709159628
2.73323130612575e-05,1.42710268614543e-05,2.88304071478255e-05,7.04337470705373e-05
4.22003669068876e-06,3.52320058790444e-06,1.00792020696476e-05,1.78224393482408e-05
3.57273031355198e-06,2.89780159222517e-06,8.23609944289114e-06,1.47066313486683e-05
3.33491538303275e-06,2.83238291059731e-06,8.47488436503931e-06,1.46421826586694e-05
3.37324862605264e-06,2.80332807443986e-06,8.06200520730008e-06,1.42385819077926e-05
3.0143844725307e-06,2.62262696168547e-06,7.82137356068242e-06,1.34583849948986e-05
3.08730158707423e-06,2.72430724766215e-06,8.09692458080017e-06,1.39085334155365e-05
3.28514522315966e-06,2.8402389333843e-06,8.42815541614224e-06,1.45535395726862e-05
3.3338237589162e-06,2.7430564488858e-06,8.26490485692182e-06,1.43417850647238e-05
3.40457868365763e-06,2.96084746642786e-06,8.60356286602303e-06,1.49689890161085e-05
3.3743185296879e-06,2.85926585847047e-06,8.43446790018537e-06,1.46680522883437e-05
3.12340235570554e-06,2.71457505159032e-06,8.303014444231e-06,1.41409918515269e-05
4.11735176658141e-06,3.54997876783765e-06,9.89642149058449e-06,1.75637520250036e-05
3.27838630045021e-06,2.70614567495901e-06,8.10725353479632e-06,1.40917855102055e-05
3.92139345545942e-06,3.31634910661726e-06,9.44344495819507e-06,1.66811875202717e-05
3.04436782839324e-06,2.78841950243891e-06,8.53513237232442e-06,1.43679197031566e-05
3.20065834516273e-06,2.75394527761243e-06,8.57777855042874e-06,1.45323821732039e-05
7.20891890812946e-06,5.75940106227099e-06,1.16965862014952e-05,2.46649061718957e-05
7.00499472358583e-06,5.01939852872248e-06,1.38209325744923e-05,2.58453258268006e-05
4.72891132256312e-06,4.03965925028824e-06,8.98969663860177e-06,1.77582672114531e-05
3.35599528911145e-06,3.15671446258768e-06,8.54768949179087e-06,1.506039924349e-05
3.41413379618156e-06,3.00523577521778e-06,8.57754852414214e-06,1.49969180955415e-05
3.54000149921628e-06,3.07769341460984e-06,8.22712923815475e-06,1.48448241519809e-05
3.54565133822604e-06,2.7961405619456e-06,8.37888897249834e-06,1.472068087267e-05
9.57361194923966e-06,1.08178794529364e-05,1.30727686291156e-05,3.34642600312916e-05
5.36629155990414e-06,4.68510313619567e-06,9.51284207179487e-06,1.95642367678947e-05
1.45576512754645e-05,1.07194677665366e-05,2.19250596239209e-05,4.7202178665922e-05
5.58558461858686e-06,3.48880680396272e-06,1.39751678639323e-05,2.30495592864819e-05
3.33383408800359e-06,3.00977115113779e-06,8.32203736002095e-06,1.46656425991623e-05
3.27486850282274e-06,2.95205730409871e-06,7.93552945688123e-06,1.41624552638027e-05
3.61476240985435e-06,3.09599062300007e-06,8.712933412411e-06,1.54236864452654e-05
3.72321374142951e-06,3.25259334632573e-06,8.10217904169337e-06,1.50779861294486e-05
3.57058898438474e-06,3.01960807348564e-06,8.8666138606775e-06,1.54568109185479e-05
1.02546141889971e-05,9.84981935542049e-06,1.64626096594769e-05,3.65670432038945e-05
4.05591241437148e-06,3.59845647388964e-06,8.62058049346048e-06,1.62749493817216e-05
5.08992896844209e-05,1.76585316835403e-05,1.97366048318353e-05,8.82944261997966e-05
5.84643097268128e-06,6.57944441923841e-06,1.96919261287263e-05,3.2117801520646e-05
3.55638245216221e-06,2.9051209242398e-06,7.8898872788503e-06,1.43513906552523e-05
3.56560073667851e-06,2.9498391337586e-06,7.85215601038572e-06,1.43675958808228e-05
3.42986239996413e-06,2.81586945977574e-06,8.10394468263939e-06,1.43496765423793e-05
3.24111864414831e-06,2.92725532755545e-06,7.95352761543294e-06,1.41219015871367e-05
3.564209393654e-06,2.94107863299979e-06,7.96364323143138e-06,1.44689312580852e-05
3.36628187130083e-06,3.2937826446302e-06,7.88679557441686e-06,1.45468600903479e-05
4.0335880178206e-06,3.28486232109425e-06,8.46374163384197e-06,1.57821919727568e-05
3.75322997955726e-06,3.02038536974043e-06,8.39580000595963e-06,1.51694153552573e-05
3.33834106243017e-06,2.80543327934228e-06,7.79086542906205e-06,1.39346397708345e-05
3.2317264057973e-06,3.34072556179386e-06,7.88311781604379e-06,1.44555697836349e-05
3.64181912195883e-06,3.64373054932757e-06,8.35766856269121e-06,1.56432182339776e-05
5.10320587297567e-06,3.4513806963112e-06,9.73014310537189e-06,1.82847296746588e-05
3.58727855956585e-06,3.36295740051329e-06,8.38707445953277e-06,1.53373104196119e-05
5.20576103815236e-06,3.19440392764475e-06,1.02698158309323e-05,1.86699807967295e-05
3.42318217095489e-06,2.96372430210418e-06,8.22466456936962e-06,1.46115710424287e-05
3.13464707550863e-06,2.64970558045325e-06,7.78588947188032e-06,1.35702421278422e-05
3.11892273662624e-06,2.6102806619643e-06,7.6172329765191e-06,1.33464363751096e-05
3.15685881965663e-06,2.81283644933738e-06,7.81753134087063e-06,1.37872266098646e-05
3.15814042529925e-06,2.68628057809605e-06,7.81344441728108e-06,1.36578654206764e-05
3.25440862671455e-06,2.8191038065987e-06,7.88981964539192e-06,1.39633320787052e-05
2.38803415395485e-05,1.63308150520726e-05,2.71551821380293e-05,6.73663387296505e-05
4.92277029592308e-06,3.7603343849025e-06,1.00880024385582e-05,1.87711071193838e-05
3.95881734422301e-06,3.16254058134301e-06,8.55822143113076e-06,1.56795793566968e-05
3.46209664786383e-06,2.86871889182157e-06,8.08350556476536e-06,1.44143211044508e-05
3.82460104254516e-06,2.97435523357143e-06,8.00580526268527e-06,1.48047615388018e-05
5.17042290468681e-06,3.81678456156861e-06,8.63447377739695e-06,1.76216812436524e-05
3.6107257650273e-06,2.936595495918e-06,7.81207337353363e-06,1.43593946344789e-05
6.33800573270869e-06,6.19483144022681e-06,1.49132650205239e-05,2.74461021934594e-05
1.83636570464127e-05,1.74973898445155e-05,2.16781602477175e-05,5.75392071386458e-05
3.34849249997642e-06,2.70609087185165e-06,8.44341620757193e-06,1.44979995794e-05
3.23084996424786e-06,2.74832608348529e-06,7.60602993546312e-06,1.35852059831963e-05
5.7180289105014e-05,4.82369682892723e-05,4.22328494541946e-05,0.000147650106848481
1.50700915699709e-05,1.12618297531543e-05,1.7029551185763e-05,4.33614725088882e-05
6.11947687696974e-06,4.71284578940109e-06,1.2229066625274e-05,2.30613892916448e-05
6.79464603458723e-06,5.82714551985361e-06,1.3565595198987e-05,2.61873867534278e-05
4.74079522934445e-06,3.27574446532073e-06,8.95687759855838e-06,1.69734172932236e-05
4.77572748798715e-06,3.46816595692858e-06,8.42345466923089e-06,1.66673481141466e-05
5.92743524839718e-06,4.92446210567986e-06,9.95870794120186e-06,2.08106052952789e-05
4.79702132631092e-06,3.99270535188165e-06,9.51187722393407e-06,1.83016039021266e-05
4.48322543728789e-06,3.30820409270853e-06,8.65911418119097e-06,1.64505437111874e-05
4.66326524312077e-06,3.77684404636199e-06,8.94365690527078e-06,1.73837661947535e-05
7.97608445105661e-06,5.39001907406647e-06,1.06636594132493e-05,2.40297629383723e-05
8.65639074610322e-06,8.48732962816704e-06,1.20848809762661e-05,2.92286013505364e-05
5.97846589130212e-06,4.12429865584267e-06,1.03383395096774e-05,2.04411040568222e-05
4.39295312644364e-06,3.42761163256236e-06,9.08182753887641e-06,1.69023922978824e-05
1.81335503516587e-05,1.13990805672705e-05,2.49708277583329e-05,5.45034586772621e-05
2.46479325427165e-05,2.50170129923293e-05,4.43881215493712e-05,9.40530670844171e-05
8.3668656097277e-06,6.27768296687824e-06,1.29100583411076e-05,2.75546069177135e-05
1.40574635747589e-05,1.16989255619747e-05,1.91065829257768e-05,4.48629720625104e-05
4.61581269857177e-05,5.22989469752607e-05,8.00546339705638e-05,0.000178511707931542
7.0172866437435e-06,5.20467873789511e-06,1.25374454175093e-05,2.47594107991479e-05
3.49607106712403e-06,3.25045007635171e-06,9.36707625352109e-06,1.61135973969968e-05
3.58310050251841e-06,3.28195526652221e-06,8.59264049296789e-06,1.54576962620085e-05
5.06491877189001e-06,4.43145456103657e-06,1.07136218973174e-05,2.0209995230244e-05
3.53094532956617e-06,3.27319591082965e-06,8.87885040679053e-06,1.56829916471864e-05
3.47982631409621e-06,3.05086982939503e-06,8.49257113365278e-06,1.5023267277144e-05
4.02205108008442e-06,3.78543290881955e-06,8.48664911389171e-06,1.62941331027957e-05
3.94267157668523e-06,4.24402727884526e-06,8.76897176478945e-06,1.69556706203199e-05
6.56233198815103e-06,4.87591856496513e-06,1.06360443916413e-05,2.20742949447575e-05
4.0794964390984e-06,4.96206290276998e-06,8.42328773854711e-06,1.74648470804155e-05
3.98554288946322e-06,4.56266469905425e-06,8.12629971055702e-06,1.66745072990745e-05
3.82817145077333e-06,4.44016687807443e-06,8.55751996815525e-06,1.6825858297003e-05
3.63649949057195e-06,3.78147780754743e-06,8.36176914216986e-06,1.57797464402892e-05
1.02989217903511e-05,1.51342508939419e-05,1.81512370462005e-05,4.35844097304936e-05
1.22350597236151e-05,1.34332530510636e-05,1.5945157206115e-05,4.16134699807937e-05
3.72907914008601e-06,4.6372164706017e-06,9.1839322836269e-06,1.75502278943146e-05
3.56769930310083e-06,3.15555062693773e-06,8.29847661928663e-06,1.50217265493252e-05
6.96438837550932e-06,6.15796354765015e-06,1.05961282660528e-05,2.37184801892122e-05
3.28348417030689e-06,3.67343441242172e-06,7.67974725374197e-06,1.46366658364706e-05
3.64142328064689e-06,3.33191299714202e-06,8.06739906490823e-06,1.50407353426971e-05
3.54998731391554e-06,4.03818628910837e-06,8.08896680586241e-06,1.56771404088863e-05
3.47443025111785e-06,4.1390699847293e-06,8.30227460330511e-06,1.59157748391523e-05
3.65974320316041e-06,4.2839605667423e-06,8.20905615877248e-06,1.61527599286752e-05
3.55916983598527e-06,3.98939996717618e-06,8.36519686233918e-06,1.59137666655006e-05
3.32712338608079e-06,2.93124959365559e-06,8.54179116699024e-06,1.48001641467266e-05
1.05386890126088e-05,5.59400603376922e-06,1.21111404745704e-05,2.82438355209485e-05
1.51083096758506e-05,1.99657826156928e-05,2.26338265681849e-05,5.77079188597284e-05
5.57402633194463e-06,4.06785058371735e-06,9.85918541632694e-06,1.95010623319889e-05
9.23917221643274e-06,6.08490346533302e-06,1.10372569960143e-05,2.636133267778e-05
1.29714876927923e-05,1.04866895175734e-05,1.89085324879959e-05,4.23667096983617e-05
5.43931071130549e-06,4.35358218192513e-06,9.02480849972485e-06,1.88177013929555e-05
4.70030046566129e-06,3.81630160275964e-06,8.61714196943361e-06,1.71337440378545e-05
4.39583296134546e-06,3.83862972561292e-06,8.12398850242372e-06,1.63584511893821e-05
4.36576450866453e-06,3.64085435841478e-06,7.98014177472336e-06,1.59867606418027e-05
4.66860368555557e-06,3.76314989230544e-06,8.22466520123828e-06,1.66564187790993e-05
4.41348983367787e-06,3.63903766894257e-06,7.89603140184702e-06,1.59485589044674e-05
7.21997773613262e-06,4.62662029886513e-06,1.09628937436682e-05,2.2809491778666e-05
9.78156438724738e-06,8.74160435833644e-06,1.29073456170232e-05,3.1430514362607e-05
5.81449418621753e-06,4.47444204314012e-06,9.27312076153129e-06,1.95620569908889e-05
5.31491336112638e-06,3.80186918330376e-06,9.03484922421614e-06,1.81516317686463e-05
5.61260326652598e-06,4.2845887521396e-06,8.74626815405059e-06,1.86434601727162e-05
5.52826614190034e-06,4.12185887346293e-06,8.75548455804756e-06,1.84056095734108e-05
7.26826259177293e-06,6.02772610353824e-06,9.40522683523853e-06,2.27012155305497e-05
8.12661644066001e-06,5.50693841568624e-06,9.73689390084378e-06,2.337044875719e-05
5.33974245376247e-06,3.96872508495444e-06,8.62664968482995e-06,1.79351172235469e-05
5.85470395800817e-06,4.42713050333818e-06,8.46195592033352e-06,1.87437903816799e-05
5.6962971585223e-06,4.62071022872121e-06,8.89785375192753e-06,1.9214861139171e-05
4.99983844676359e-06,4.47654464190684e-06,8.09039561686117e-06,1.75667787055316e-05
9.51763414321969e-06,7.18958882726963e-06,1.08887945780928e-05,2.75960175485821e-05
7.17031408435026e-06,5.19979577034153e-06,9.93778684384757e-06,2.23078966985394e-05
6.08359832323585e-06,4.64294445054154e-06,8.97710142326244e-06,1.97036441970398e-05
5.52076820223066e-06,4.36474153751708e-06,8.45024586652372e-06,1.83357556062715e-05
5.75686121358679e-06,4.90598791147162e-06,8.51222505863202e-06,1.91750741836904e-05
5.41872672518017e-06,4.1977931717767e-06,8.33603447996811e-06,1.7952554376925e-05
5.63065680413548e-06,4.30113955966655e-06,8.38314243698919e-06,1.83149388007912e-05
5.62042543876188e-06,4.38333601983775e-06,8.69586280374288e-06,1.86996242623425e-05
5.27392320978537e-06,4.46517003478275e-06,8.6787198500966e-06,1.84178130946647e-05
1.11526455564817e-05,6.54075903644518e-06,9.95922163058061e-06,2.76526262235075e-05
9.72876932615328e-06,8.42360306581554e-06,1.20075359172716e-05,3.01599083092404e-05
5.21576169479249e-06,4.06959440047894e-06,8.57274735695068e-06,1.78581034522221e-05
5.07578481513375e-06,4.48328665838813e-06,8.29356226612707e-06,1.7852633739649e-05
5.44589031413171e-06,4.65178647685182e-06,8.28407761610436e-06,1.83817544070879e-05
9.24799814861307e-06,6.3094766003012e-06,9.32373521657035e-06,2.48812099654846e-05
5.48910285921242e-06,4.69167208880387e-06,8.88385270946448e-06,1.90646276574808e-05
5.14103789534764e-06,4.91164139125536e-06,8.43632648073082e-06,1.84890057673338e-05
5.52674772720135e-06,4.73952254855027e-06,8.88630212996697e-06,1.91525724057186e-05
5.50974897123795e-06,5.13273618919678e-06,8.61412534626893e-06,1.92566105067037e-05
5.22248438642567e-06,4.53102961124925e-06,8.25752317025974e-06,1.80110371679347e-05
6.28808303384436e-06,5.85565105096544e-06,1.0015823839664e-05,2.21595579244738e-05
1.31855439888337e-05,9.98563963689232e-06,1.97230513783099e-05,4.28942350040359e-05
4.92997411230716e-06,3.6130693354955e-06,1.03463869730021e-05,1.88894304208047e-05
3.93783429123034e-06,3.63099149268223e-06,8.97549878218288e-06,1.65443245660955e-05
4.04149056793062e-06,4.49075686362055e-06,9.09401479091393e-06,1.76262622224651e-05
5.59809801907401e-06,4.76281672516185e-06,1.01100315098621e-05,2.0470946254098e-05
4.15522290625856e-05,2.38821178237898e-05,4.15713750001959e-05,0.000107005721886571
6.65397661600605e-06,7.16317950411739e-06,1.32344170457718e-05,2.70515731658952e-05
7.20632348041127e-06,7.96151585769034e-06,1.34385951847303e-05,2.8606434522832e-05
4.694856982174e-06,4.89952435495828e-06,9.95095150143276e-06,1.9545332838565e-05
6.0805967627235e-06,6.94669172058433e-06,1.10159950320639e-05,2.40432835153718e-05
4.12006372348282e-05,2.29327364289899e-05,3.27938395519114e-05,9.69272132157296e-05
4.92036241488144e-06,3.64971830197653e-06,7.92870040028018e-06,1.64987811171382e-05
4.98843318150542e-06,3.49673663875562e-06,7.97939128174013e-06,1.64645611020012e-05
5.11523983630861e-06,3.60215589659024e-06,8.02339015408714e-06,1.6740785886986e-05
5.14110966076237e-06,3.39560067645796e-06,8.20223551687246e-06,1.67389458540928e-05
5.13026414665581e-06,3.40462653461882e-06,8.39599586411872e-06,1.69308865453933e-05
7.8923751514333e-06,7.24765545716463e-06,1.41357778481532e-05,2.92758084567511e-05
5.04558287404675e-06,4.71535015215624e-06,9.71530154026548e-06,1.94762345664685e-05
5.86148314731494e-06,4.77576375406524e-06,1.04317833007093e-05,2.10690302020895e-05
8.10849480686091e-06,5.73961053775278e-06,1.20331084655519e-05,2.58812138101656e-05
1.19384159491945e-05,9.41325069401978e-06,1.75609012450272e-05,3.89125678882415e-05
7.76538896298886e-06,8.72597863968507e-06,1.47975096301017e-05,3.12888772327756e-05
5.03018867501735e-06,4.72000876887127e-06,9.9708696368629e-06,1.97210670807515e-05
4.46776265166333e-06,4.02262155950199e-06,9.19966421563941e-06,1.76900484268047e-05
4.63059289487496e-06,5.31756141852982e-06,1.00505115298366e-05,1.99986658432414e-05
5.17849298316166e-06,5.31482545684015e-06,1.1714421316312e-05,2.22077397563138e-05
5.74770733215328e-06,5.58878299370453e-06,1.10945898375117e-05,2.24310801633695e-05
9.90439107201899e-06,1.10080939329719e-05,2.22782222684462e-05,4.3190707273437e-05
6.9347837827827e-06,5.54515805348398e-06,1.13991053138048e-05,2.38790471500715e-05
8.83448594286909e-06,9.567684856154e-06,1.74055552115689e-05,3.5807726010592e-05
4.39251019472859e-06,3.57657222021005e-06,1.00228149585876e-05,1.79918973735262e-05
5.13575615051171e-06,4.89412726319799e-06,1.11034656897243e-05,2.1133349103434e-05
7.50595578228725e-06,8.31303955043951e-06,1.67899528515064e-05,3.26089481842332e-05
2.92509412316927e-05,1.82437928888985e-05,2.16268438631727e-05,6.91215779837639e-05
4.42900850068564e-05,5.19785872288308e-05,4.35509816179134e-05,0.000139819653853601
3.98761777537479e-06,4.28970156769975e-06,9.69424831728765e-06,1.79715676603622e-05
8.13585955279325e-06,7.46739287167327e-06,1.43039071406579e-05,2.99071595651244e-05
5.81782717225453e-06,4.74268265195042e-06,1.03070377990959e-05,2.08675476233009e-05
6.02890064697483e-06,5.39260440983618e-06,9.96891667635741e-06,2.13904217331684e-05
7.15379004279964e-06,5.81790043781696e-06,1.10048937404995e-05,2.39765842211161e-05
5.04970359214414e-06,5.30382970337271e-06,1.08660006722129e-05,2.12195339677298e-05
6.62505375545213e-06,4.99852807214765e-06,1.06025403569832e-05,2.22261221845829e-05
1.79961442427557e-05,1.35257953601174e-05,2.15542717823384e-05,5.30762113852115e-05
8.0969360475907e-06,7.40455182267515e-06,1.40949076411204e-05,2.95963955113862e-05
4.41861653021311e-06,3.91010668857768e-06,9.99591730243439e-06,1.83246405212252e-05
3.58352635737435e-06,3.16118921752418e-06,9.1950935089583e-06,1.59398090838568e-05
3.749819801696e-06,3.39394737846852e-06,9.22152306041538e-06,1.63652902405799e-05
6.95606503472508e-06,5.34669280106379e-06,9.7361946488532e-06,2.20389524846421e-05
5.13084822421731e-06,5.04575511334841e-06,1.01615205499339e-05,2.03381238874997e-05
1.25518456873665e-05,1.95488245257925e-05,2.00811014731956e-05,5.21817716863546e-05
7.33873731479767e-06,5.6839463470134e-06,1.0731850583455e-05,2.3754534245266e-05
4.17818564904172e-06,4.1614119219618e-06,8.26678344324464e-06,1.66063810142482e-05
2.07152719061613e-05,1.54758532047234e-05,2.0252340472998e-05,5.64434655838826e-05
5.01562950247927e-06,4.61714921632783e-06,8.49595509402236e-06,1.81287338128295e-05
3.54987823954583e-06,3.25721685160356e-06,7.61467770255425e-06,1.44217727937036e-05
8.8865683362237e-06,7.998743942101e-06,1.11042613453217e-05,2.79895736236464e-05
5.50913435434856e-06,4.11772277881836e-06,8.56807260455612e-06,1.8194929737723e-05
7.52196577128118e-06,5.22024621824584e-06,1.06075849565958e-05,2.33497969461228e-05
4.81230633221222e-06,3.84811065876988e-06,8.03731716808066e-06,1.66977341590628e-05
5.42227710846473e-06,3.97197802477184e-06,8.43234901663325e-06,1.78266041498698e-05
4.442160120666e-05,2.98197725354546e-05,4.9949022353142e-05,0.000124190396095257
1.094265270853e-05,1.00253963358642e-05,1.45036878691556e-05,3.54717369135498e-05
7.8152274098107e-06,6.46090244501242e-06,1.21353904657886e-05,2.64115203206118e-05
4.61315361749272e-06,3.56697137509062e-06,9.09010507177941e-06,1.72702300643628e-05
5.7288713151202e-06,3.87487734109643e-06,1.15780432239277e-05,2.11817918801443e-05
7.55209697723132e-06,5.26954900644288e-06,1.14085474438662e-05,2.42301934275404e-05
3.99673712189366e-06,3.30882797802794e-06,9.49180603790151e-06,1.67973711378231e-05
2.57263568416978e-05,5.91927802381414e-05,4.13360999906762e-05,0.000126255237070515
1.08973351039882e-05,1.55422196825967e-05,2.11334567396636e-05,4.75730115262486e-05
3.69454540026959e-06,3.18750580161391e-06,9.2524960119527e-06,1.61345472138362e-05
1.31174729908798e-05,1.50908466182872e-05,1.66176964188728e-05,4.48260160280398e-05
1.01754423048949e-05,1.1185097258352e-05,1.72827270342771e-05,3.8643266597524e-05
4.12175386095901e-06,6.99106826798825e-06,9.71575604527704e-06,2.08285781742243e-05
4.2136294812837e-06,6.34846182467655e-06,9.37826567115699e-06,1.99403569771172e-05
5.71642864664923e-06,9.30211925181403e-06,1.17310942434358e-05,2.67496421418991e-05
1.11357855385529e-05,8.68502087964094e-06,1.4412501387653e-05,3.42333078058469e-05
7.50992614283646e-06,4.65607004730118e-06,1.22370839401356e-05,2.44030801302732e-05
5.17135295149246e-06,4.25570075523481e-06,1.18031121499187e-05,2.12301658566459e-05
2.15717761262065e-05,9.31243738068288e-06,4.04308495185419e-05,7.13150630254313e-05
4.52103446166115e-06,5.11045231734958e-06,1.2318632117198e-05,2.19501188962087e-05
6.83840300516835e-06,5.39077673751215e-06,1.27797250645558e-05,2.50089048072363e-05
6.37511824028501e-06,4.87566839640593e-06,1.10177764432066e-05,2.22685630798976e-05
7.5289612944613e-06,4.76458747024752e-06,1.16385918835442e-05,2.3932140648253e-05
4.51809942453472e-06,4.23152939638259e-06,1.00534779765323e-05,1.88031067974496e-05
3.61815557087486e-06,3.56608535242525e-06,8.97264409449544e-06,1.61568850177955e-05
5.92963469393149e-06,3.62101083842908e-06,9.48085512360767e-06,1.90315006559682e-05
5.6095151499325e-06,4.67532150714357e-06,1.1878644174481e-05,2.21634808315571e-05
3.60653248296202e-06,3.50799016708422e-06,8.44881470454893e-06,1.55633373545952e-05
1.41195211598224e-05,4.97680003871319e-06,1.46060277933062e-05,3.37023489918417e-05
4.17795908210664e-06,4.1194700967819e-06,9.82840904378106e-06,1.81258382226696e-05
3.78931704231446e-06,3.87123325981828e-06,9.47731667404634e-06,1.71378669761791e-05
4.15763338781574e-06,4.86874469622836e-06,1.13558945651932e-05,2.03822726492373e-05
4.0264159968053e-06,4.23601767625265e-06,1.08467384809146e-05,1.91091721539725e-05
3.16445274571504e-06,2.98557501932335e-06,7.7038106645837e-06,1.38538384296221e-05
3.62146655675665e-06,4.0295120361128e-06,9.09403884795499e-06,1.67450174408244e-05
3.32259170691668e-06,3.11082946549194e-06,8.03995595312395e-06,1.44733771255326e-05
3.47936040868074e-06,3.27229044136967e-06,8.68948350479954e-06,1.54411343548499e-05
4.24885486889105e-06,3.63090511112658e-06,9.22307185571188e-06,1.71028318357295e-05
3.45564099785503e-06,3.2922888081802e-06,8.22051029103252e-06,1.49684400970677e-05
3.90242630273811e-06,3.43791316355934e-06,8.78942882016421e-06,1.61297682864617e-05
3.56764065802241e-06,3.40566285567693e-06,8.89656195477706e-06,1.58698654684764e-05
3.67783009038365e-06,3.33591752989689e-06,8.2242906421309e-06,1.52380382624114e-05
3.51959999290091e-06,3.16305173087043e-06,8.44452673733754e-06,1.51271784611089e-05
3.51196968381451e-06,3.37906929093277e-06,8.62700831015327e-06,1.55180472849006e-05
3.50198515038579e-06,3.13698709052697e-06,9.17819310980212e-06,1.58171653507149e-05
3.45331606431264e-06,3.22777926261196e-06,7.96400757374619e-06,1.46451029006708e-05
3.28787220553012e-06,3.02738885134623e-06,7.7583595483876e-06,1.4073620605264e-05
3.63217404013481e-06,3.23702188094229e-06,8.05654617148365e-06,1.49257420925607e-05
3.49121150233705e-06,3.22792568037473e-06,8.27128437002094e-06,1.49904215527327e-05
3.41369832680502e-06,2.99068265271638e-06,8.43974027258361e-06,1.4844121252105e-05
3.52741784850503e-06,3.18577512342168e-06,8.2151449607001e-06,1.49283379326268e-05
3.5445476677885e-06,3.42145703782799e-06,8.57898050066253e-06,1.5544985206279e-05
3.32908254681703e-06,3.08388014122301e-06,8.614851991855e-06,1.5027814679895e-05
3.46655432736848e-06,3.23521067260237e-06,8.35030383588499e-06,1.50520688358558e-05
3.85867732163801e-06,3.37700796156747e-06,9.21168223476448e-06,1.644736751797e-05
4.31792251069099e-06,4.24347618600882e-06,9.88115285942538e-06,1.84425515561252e-05
3.81471534184041e-06,3.6892573117977e-06,9.78699139750581e-06,1.72909640511439e-05
3.9194839925941e-06,3.57154057779102e-06,9.9237498327831e-06,1.74147744031682e-05
3.76242402125336e-06,3.7934174942771e-06,9.58949891578149e-06,1.7145340431312e-05
6.07685849713449e-06,4.9411602853695e-06,1.23627024386276e-05,2.33807212211316e-05
1.16843099417224e-05,1.02313490246304e-05,1.50928891738286e-05,3.70085481401815e-05
4.31091708126242e-06,4.43555331922148e-06,1.06315680367062e-05,1.93780384371901e-05
3.91758096421176e-06,4.06410141558241e-06,1.02362288750331e-05,1.82179112548273e-05
3.61220379258013e-06,3.60773597062219e-06,9.31968300732394e-06,1.65396227705263e-05
3.75854146674154e-06,3.82705339343467e-06,1.00834031422981e-05,1.76689980024743e-05
3.66083120076606e-06,3.41004725778892e-06,9.83905387524899e-06,1.6909932333804e-05
5.06573830811654e-06,4.54221147252305e-06,1.15255456168135e-05,2.11334953974531e-05
4.67804705873843e-06,5.09283969032145e-06,1.1455024944361e-05,2.12259116934209e-05
3.56246398506002e-06,3.53799421199384e-06,8.6623049466784e-06,1.57627631437323e-05
8.49474884577883e-06,6.0337366244663e-06,1.44469756082304e-05,2.89754610784756e-05
6.55308452023947e-06,5.07955909776632e-06,1.21141091965847e-05,2.37467528145905e-05
4.58165710507018e-06,4.29048480023721e-06,1.14924792975091e-05,2.03646212028165e-05
7.02599309918368e-06,5.55515727767858e-06,1.45859069261473e-05,2.71670573030096e-05
5.24524773023394e-06,4.89654933541955e-06,1.28528997033561e-05,2.29946967690096e-05
3.55711380673261e-06,3.09677657386839e-06,9.56152151462294e-06,1.62154118952239e-05
5.77489888381172e-06,4.77967882796081e-06,1.28362590233412e-05,2.33908367351137e-05
9.34086264831962e-06,6.89750812766097e-06,1.37444108259828e-05,2.99827816019634e-05
2.34607569344362e-05,1.52578076729009e-05,2.10796090622873e-05,5.97981736696244e-05
6.67938642147538e-06,7.03265649326428e-06,1.11191225383596e-05,2.48311654530993e-05
4.07133653510235e-06,3.57948772609125e-06,8.81033024247547e-06,1.64611545036691e-05
4.39078531273545e-06,4.11729272104564e-06,1.01016925917707e-05,1.86097706255518e-05
5.27628582971359e-06,4.57614930626752e-06,1.05546397292091e-05,2.04070748651902e-05
6.12963756252556e-06,5.34056780106047e-06,1.16148453538556e-05,2.30850507174416e-05
8.24136269473356e-06,6.54736225485821e-06,1.10438173680714e-05,2.58325423176631e-05
3.65695083325177e-06,3.73880421231663e-06,8.88022354116559e-06,1.6275978586734e-05
9.83743240577728e-06,5.55388122013885e-06,1.04984350027952e-05,2.58897486287114e-05
4.73798231609988e-06,3.78749220983782e-06,9.13878978362597e-06,1.76642643095637e-05
5.4326753631142e-06,4.25999323034963e-06,9.870912749211e-06,1.95635813426748e-05
3.38592726117449e-06,3.17334608490507e-06,7.79107797079981e-06,1.43503513168794e-05
4.09915257761225e-06,3.76213738273438e-06,9.17336123469351e-06,1.70346511950401e-05
3.40952862942599e-06,3.20294361835399e-06,8.21462257826722e-06,1.48270948260472e-05
3.22884554252283e-06,2.84722075499028e-06,7.2988945659224e-06,1.33749608634355e-05
3.91639552024455e-06,3.45999065277059e-06,8.2310026374212e-06,1.56073888104363e-05
4.22487376295147e-06,3.32183107973389e-06,9.12651239724888e-06,1.66732172399342e-05
1.47858572306169e-05,7.8533905747346e-06,1.50148750353945e-05,3.76541228407459e-05
1.62061630682884e-05,5.75565667957958e-06,1.62393333244722e-05,3.82011530723402e-05
8.82197397466511e-06,4.87935106523519e-06,1.32789248941648e-05,2.69802499340651e-05
9.37791112516085e-06,6.73724139225757e-06,1.62507212257308e-05,3.23658737431492e-05
3.97172182012758e-06,3.40767792757503e-06,1.17810062071135e-05,1.91604059548161e-05
7.25774989235396e-06,6.07061117767378e-06,1.76790580462479e-05,3.10074191162756e-05
3.58490600664713e-06,3.1396473496849e-06,1.08264586831342e-05,1.75510120394663e-05
3.71719900045298e-06,3.31148385689756e-06,1.11549790809562e-05,1.81836619383067e-05
3.77713036224714e-06,3.44035146580755e-06,1.14499223892544e-05,1.86674042173091e-05
3.68200269692538e-06,3.0858096801535e-06,1.13216051032108e-05,1.80894174802897e-05
3.67340585536677e-06,3.30457560981384e-06,1.14200570078133e-05,1.83980384729939e-05
7.34029709465386e-06,5.36292123684082e-06,1.64398864085561e-05,2.91431047400508e-05
1.78495739243714e-05,8.00255278547799e-06,1.87852827018164e-05,4.46374094116658e-05
1.12244853362194e-05,9.14051213073462e-06,2.05088768767141e-05,4.08738743436681e-05
8.94581635687954e-06,8.16428178486071e-06,2.1105408804823e-05,3.82155069465633e-05
8.93244349534924e-05,6.13852446198729e-05,0.000132814729966868,0.000283524409540233
1.70869201122231e-05,1.49776333181929e-05,3.92073541849912e-05,7.12719076154073e-05
8.8707871323463e-06,7.47022292551328e-06,1.81004451984166e-05,3.44414552562762e-05
1.58938544918527e-05,6.48050566278134e-06,2.04570092887001e-05,4.28313694433341e-05
1.81769810408344e-05,1.06099989437269e-05,2.52324819994734e-05,5.40194619840347e-05
2.10865555063773e-05,1.56429677833377e-05,2.48634961155206e-05,6.15930194052356e-05
2.68487120053085e-05,1.58655856708412e-05,3.42842657690858e-05,7.69985634452356e-05
1.71381812045012e-05,8.98077467733716e-06,2.16931969114637e-05,4.78121527933021e-05
4.49747069072091e-06,3.82875949437788e-06,9.63819879232679e-06,1.79644289774256e-05
8.09046497859026e-06,6.37343149440434e-06,1.21096287282446e-05,2.65735252012392e-05
5.65785463307772e-06,4.47702592060363e-06,1.03773739780384e-05,2.05122545317197e-05
1.35289584574693e-05,8.15815779729035e-06,1.51664414963661e-05,3.68535577511257e-05
6.24820467708051e-06,4.83783234363115e-06,9.98384913347473e-06,2.10698861541864e-05
1.08676394477989e-05,4.64574878711828e-06,2.34702153576692e-05,3.89836035925865e-05
4.31882930490791e-06,3.51336110012326e-06,9.71723485089555e-06,1.75494252559267e-05
1.65546164654883e-05,8.84010749017393e-06,1.87003968045442e-05,4.40951207602065e-05
7.05391671328846e-06,5.9144402002081e-06,1.2213334447388e-05,2.51816913608846e-05
4.7832887877249e-06,3.63540249542295e-06,1.04774970816026e-05,1.88961883647505e-05
4.45603703515285e-06,3.22555852144323e-06,1.00454519668053e-05,1.77270475234013e-05
5.47355131800736e-06,5.13503319565567e-06,1.28214967561647e-05,2.34300812698277e-05
6.80400372169616e-06,5.65486116229036e-06,1.31612114457104e-05,2.56200763296969e-05
8.52912884541986e-06,5.32486258887258e-06,1.33692937208248e-05,2.72232851551173e-05
5.60310096708866e-06,4.48683603326505e-06,1.28556041933807e-05,2.29455411937344e-05
8.0817700402361e-06,4.37417711342935e-06,1.33482444671457e-05,2.58041916208111e-05
5.28765826863825e-06,3.44419654429937e-06,1.20685986812465e-05,2.08004534941841e-05
8.88714715196372e-06,4.63953256889165e-06,1.57239511368017e-05,2.92506308576571e-05
8.37117638705768e-06,4.61317991480938e-06,1.58895154452246e-05,2.88738717470916e-05
1.5520138626054e-05,8.07339354689139e-06,1.79044047150058e-05,4.14979368879513e-05
4.68824029692904e-05,3.77261618156358e-05,6.81408545803305e-05,0.000152749419365257
1.19804968054044e-05,1.05776479059743e-05,2.97149895259735e-05,5.22731342373522e-05
3.69937937070027e-06,3.73160105262229e-06,1.04523067539675e-05,1.788328717729e-05
3.51763978445723e-06,3.32145748160437e-06,1.01968453954735e-05,1.70359426615351e-05
3.41634652401838e-06,3.16389430629918e-06,9.44926058149106e-06,1.60295014118086e-05
3.90535960816853e-06,3.48934634439583e-06,9.49950641791099e-06,1.68942123704754e-05
3.98397946532936e-06,3.50646712585796e-06,9.92142287842235e-06,1.74118694696097e-05
3.61407753519033e-06,3.35840408383727e-06,9.56415640888946e-06,1.65366380279171e-05
3.46005174075845e-06,3.05462495165817e-06,9.38796979226644e-06,1.59026464846831e-05
5.11167958526425e-06,3.83427181818644e-06,1.19497084625903e-05,2.0895659866041e-05
3.91262855501478e-06,3.56449844385655e-06,1.04434014321699e-05,1.79205284310412e-05
5.20775878824793e-06,3.34786962604462e-06,1.09002738575387e-05,1.94559022718312e-05
8.98993193542335e-06,5.24484780617073e-06,1.24441542533828e-05,2.66789339949769e-05
6.32757146441409e-06,4.43995639801842e-06,1.22954167184464e-05,2.30629445808789e-05
4.82088630484346e-06,3.82136507564696e-06,1.15294807926726e-05,2.0171732173163e-05
4.46777412793923e-06,3.59502395131059e-06,1.11700285613643e-05,1.92328266406141e-05
5.05255364756565e-06,3.95725152865561e-06,1.07153557493659e-05,1.97251609255872e-05
4.76183481938107e-06,3.41140485274564e-06,1.09272482803861e-05,1.91004879525128e-05
5.15228987808839e-06,3.43803427124524e-06,1.08881023921028e-05,1.94784265414364e-05
8.26480356512684e-06,4.66298830803136e-06,1.42815107101356e-05,2.72093025832938e-05
7.10649442857669e-06,4.40107768733643e-06,1.27570686222471e-05,2.42646407381603e-05
4.31412909330253e-06,3.379189314524e-06,1.05708897508416e-05,1.82642081586681e-05
8.96674730682371e-06,4.30435303924705e-06,1.25373150107401e-05,2.58084153568108e-05
3.92915308558721e-06,3.64059052876114e-06,1.18798699507934e-05,1.94496135651417e-05
4.15525772249549e-06,3.80011759629811e-06,1.15885056760836e-05,1.95438809948772e-05
4.67685787969641e-06,3.6889030888013e-06,1.1667107160072e-05,2.00328681285697e-05
3.98129564002265e-06,3.58855315190243e-06,1.14633617588377e-05,1.90332105507627e-05
4.05308024073037e-06,3.60204300867363e-06,1.16861562142748e-05,1.93412794636788e-05
7.83982811829101e-06,4.46517946278715e-06,1.4553877256424e-05,2.68588848375022e-05
1.03343604991341e-05,4.32784342449742e-06,1.34057645933424e-05,2.8067968516974e-05
3.61487537313345e-06,3.24967383578798e-06,1.02513114773527e-05,1.71158606862741e-05
3.73244674184844e-06,3.43958995007462e-06,1.08524991082075e-05,1.80245358001306e-05
4.33677928408336e-06,3.60603627764405e-06,1.12578683691742e-05,1.92006839309016e-05
7.81915423803359e-06,4.68490818233092e-06,1.38788946765188e-05,2.63829570968833e-05
3.53523957964989e-05,3.7364117323053e-05,7.25151248890349e-05,0.000145231638008587
8.12895656137883e-06,5.28834255907837e-06,1.90336442851902e-05,3.24509434056474e-05
8.21394984232186e-06,5.25676530586282e-06,1.56188021166371e-05,2.90895172648218e-05
1.98658497518059e-05,1.3852519608663e-05,3.40013525954212e-05,6.77197219558901e-05
8.54990254274809e-06,6.34320899747195e-06,1.46483612107256e-05,2.95414727509456e-05
6.69853717096564e-06,4.53554894004622e-06,1.31579969017803e-05,2.43920830127921e-05
3.82677670943862e-06,3.13302853959125e-06,1.16186046624389e-05,1.85784099114688e-05
5.90260119577087e-06,4.31238733136653e-06,1.33750108778343e-05,2.35899994049717e-05
1.43688887473255e-05,9.2711281506211e-06,2.40992199629761e-05,4.77392368609227e-05
7.29526796564203e-06,4.08544818136845e-06,1.37918969516318e-05,2.51726130986423e-05
4.61874483818022e-06,3.56129225050207e-06,1.1803480618376e-05,1.99835177070583e-05
6.78333500150939e-06,3.93836321427537e-06,1.17884331538227e-05,2.25101313696074e-05
7.17355959784203e-06,3.73687932902583e-06,1.17337701613403e-05,2.26442090882082e-05
3.73830227236921e-06,3.23261795938601e-06,9.83932038134885e-06,1.68102406131041e-05
9.5661184890775e-06,6.20396215733979e-06,1.72149910938192e-05,3.29850717402365e-05
1.13367308956309e-05,5.39525374391932e-06,1.51831151139254e-05,3.19150997534756e-05
5.64403498701441e-06,4.33996357188602e-06,1.22876074042251e-05,2.22716059631255e-05
6.685336770857e-06,5.64318668227322e-06,1.53602590240185e-05,2.76887824771488e-05
4.8179630399316e-06,3.93881147357091e-06,1.36424526315357e-05,2.23992271450382e-05
6.6007530498136e-06,3.9650164380585e-06,1.26146316862799e-05,2.3180401174152e-05
7.63646283468459e-06,3.87354122467744e-06,1.30173051692334e-05,2.45273092285954e-05
1.56884373844592e-05,4.72005180471699e-06,1.73854296773257e-05,3.7793918866502e-05
6.42804972953161e-06,5.85212999636927e-06,2.11514027258604e-05,3.34315824517613e-05
3.94846124318461e-06,3.3370330971061e-06,1.34923133704256e-05,2.07778077107163e-05
3.70551719392627e-06,3.25646044059509e-06,1.29434628166157e-05,1.99054404511371e-05
5.7068254190339e-06,3.49640624417126e-06,1.57146505676054e-05,2.49178822308106e-05
3.7987751211134e-06,3.30765482876072e-06,1.47258939017064e-05,2.18323238515805e-05
5.07578825862487e-06,3.45134140096654e-06,1.39836777829655e-05,2.25108074425569e-05
7.43004734380369e-06,3.36047580644959e-06,1.43598678813126e-05,2.51503910315659e-05
1.2268157538729e-05,8.04879266919496e-06,2.25471096668947e-05,4.28640598748187e-05
6.09833561538807e-05,3.79760094961288e-05,5.03407256245935e-05,0.000149300091274603
8.04430025408385e-06,6.25408724239227e-06,1.13439179211673e-05,2.56423054176434e-05
5.11891438713282e-06,3.95622263203551e-06,1.00302606777086e-05,1.9105397696877e-05
6.93384902326077e-06,7.5591872121785e-06,1.39292260795715e-05,2.84222623150108e-05
2.77411538027393e-05,1.03709679754451e-05,1.77093712221529e-05,5.58214930003372e-05
1.86565510450619e-05,1.74303985990694e-05,1.8805553667446e-05,5.48925033115774e-05
1.44730685700306e-05,9.39306909421118e-06,2.02339467439951e-05,4.41000844082368e-05
6.25801414916992e-06,6.73541056699413e-06,1.3223882613429e-05,2.62173073295931e-05
5.11628947827608e-06,4.46100044647084e-06,1.05290575319158e-05,2.01063474566627e-05
1.90765968594769e-05,1.85315045756077e-05,2.32407620044819e-05,6.08488634395665e-05
5.00057881900024e-06,4.31506480236256e-06,1.0493966492913e-05,1.98096101142758e-05
5.8332384090666e-06,4.84647225466525e-06,1.274174820027e-05,2.34214588640019e-05
5.37822675199764e-06,4.21217084505159e-06,1.03318652229566e-05,1.99222628200059e-05
3.88584615846104e-06,3.3364380982251e-06,8.53626112991193e-06,1.57585453865981e-05
6.60670526269492e-06,6.67322561077499e-06,1.67573295544221e-05,3.0037260427892e-05
7.32746112774713e-06,6.36085761047683e-06,1.49992159442697e-05,2.86875346824937e-05
5.07791267141973e-06,4.45696677175598e-06,1.1582891078598e-05,2.11177705217737e-05
6.65205619307836e-06,6.02123997791788e-06,1.31879711898324e-05,2.58612673608286e-05
4.59050633719914e-06,3.79739585807178e-06,1.03642986525055e-05,1.87522008477764e-05
4.96566259753055e-06,4.09237234771975e-06,1.06602788869678e-05,1.97183138322181e-05
8.9518110580484e-06,8.26984993769606e-06,1.55330429917702e-05,3.27547039875147e-05
