potencia_x,potencia_y,potencia_z,potencia_total_xyz
7.8273417804259e-06,0.000323911191980016,0.000264688358959106,0.000596426892719548
1.23265498877113e-05,1.26510413290895e-05,3.03563194773239e-05,5.53339106941247e-05
4.17338640296446e-05,5.61159548159405e-05,3.48610512758951e-05,0.00013271087012148
7.56865795728387e-05,9.03868806916983e-05,6.53757175738385e-05,0.000231449177838376
4.77736760493386e-06,3.65225320782396e-06,8.2589446836945e-06,1.66885654964523e-05
9.41281817265721e-06,1.20978410876319e-05,1.71946019166411e-05,3.87052611769302e-05
3.03007697881925e-06,2.65720521607955e-06,8.19571111715238e-06,1.38829933120512e-05
6.33277359215969e-05,0.00191380845238668,7.96210267572365e-05,0.00205675721506551
0.000198421248001061,0.000343701610860854,0.000281316153890685,0.0008234390127526
8.93082815823052e-05,0.000207129828336974,0.000167720871227403,0.000464158981146682
0.00024639867795055,0.000580674513985562,0.000402629749737739,0.00122970294167385
0.000126168508976327,0.000272701698350577,0.000214038474720578,0.000612908682047482
6.90746620818198e-05,0.000108522762030452,0.000166304186094058,0.00034390161020633
4.32358202896026e-05,7.47688897441647e-05,9.56739074265337e-05,0.000213678617460301
0.000464566222397295,0.00139050096796668,0.00133216371913244,0.00318723090949641
0.000373204712047763,0.00119531548687325,0.00101001425936028,0.00257853445828129
4.42609967035305e-05,2.12635482042329e-05,3.30992160090855e-05,9.86237609168488e-05
4.83989942196396e-05,3.16552472473936e-05,5.92254402938806e-05,0.000139279681760914
3.91358619681782e-05,4.38881859908244e-05,8.01724773505371e-05,0.00016319652530954
3.65926146905513e-05,2.81410388187935e-05,4.66457037834099e-05,0.000111379357292755
0.000152506036981336,0.000138660542508131,0.000171923836647452,0.000463090416136919
3.69438614762267e-05,6.27011603899138e-05,3.71184968824327e-05,0.000136763518748573
9.61417087177915e-05,5.24882924689043e-05,7.04336111838018e-05,0.000219063612370498
0.000316939195388148,0.00063188244966015,0.000598112233356936,0.00154693387840523
0.000626030258317976,0.0022443021799592,0.00188038593197758,0.00475071837025475
0.000131864023858953,9.88892992566196e-05,0.000132232699538324,0.000362986022653897
8.1172013560176e-05,3.56084487979164e-05,5.78691079092524e-05,0.000174649570267345
0.000161609516707785,7.03181696456795e-05,0.000106366386790936,0.0003382940731444
9.24077420641753e-05,3.40007865111564e-05,0.000110299180749538,0.000236707709324869
0.000407890314930761,0.000896381979155971,0.000361679388722587,0.00166595168280932
5.0410838796915e-05,5.54550652105389e-05,9.04665955788807e-05,0.000196332499586335
0.000128312177620748,0.000144311068028887,0.000125427083266486,0.00039805032891612
0.000162129020677238,9.47547553712644e-05,0.000123485733112883,0.000380369509161385
0.00011127879383101,7.48539673741825e-05,8.40902681875309e-05,0.000270223029392724
0.000617683801451731,0.00236607206622914,0.00160162652479484,0.0045853823924757
0.000278202030346768,0.000636163724525338,0.000602773738717779,0.00151713949358988
7.3011983951798e-05,0.000253404235042344,7.55165177576454e-05,0.000401932736751787
0.000126878224877557,0.000122280617599362,7.61224331020782e-05,0.000325281275578998
0.000436020160901752,0.000654633643773689,0.000560522876699637,0.00165117668137508
0.000218229652833571,0.000777680516725936,0.000587782703759631,0.00158369287331914
9.85879016075348e-05,0.000164834763342077,0.00014715768818593,0.000410580353135541
7.10528220831752e-05,6.40791449056425e-05,6.38055354539419e-05,0.00019893750244276
7.90628228422877e-05,0.00017737586726343,9.54818388132878e-05,0.000351920528919006
1.5878557373848e-05,1.34453463074167e-05,2.38163209382533e-05,5.31402246195179e-05
2.09262925864601e-05,1.35399251798543e-05,2.8078973673548e-05,6.25451914398624e-05
1.30839380432903e-05,8.82685545881813e-06,1.521152228909e-05,3.71223157911984e-05
1.14424641376479e-05,8.89760265982177e-06,1.81107378204946e-05,3.84508046179643e-05
6.75636773154148e-06,5.61229768005642e-06,1.73659836150549e-05,2.97346490266528e-05
9.64108516463164e-06,7.47493793438065e-06,1.70966968095383e-05,3.42127199085506e-05
1.26260142607809e-05,1.00062888695992e-05,1.7452887065223e-05,4.0085190195603e-05
8.93803738339223e-06,7.14825079711781e-06,1.86986998832471e-05,3.47849880637571e-05
5.02293336876304e-06,4.89086087651135e-06,1.4259377990821e-05,2.41731722360954e-05
1.87939841835182e-05,1.39139154450046e-05,1.99736258002606e-05,5.26815254287834e-05
5.99149183608945e-06,8.1828188495498e-06,1.61880990130356e-05,3.03624096986748e-05
0.000110213262823637,0.00016720389983876,0.000261903425549538,0.000539320588211935
0.000129388491870685,0.000119392116148353,0.000136434166090661,0.000385214774109699
0.000203216930889301,0.0002383583837074,0.000242420192888953,0.000683995507485654
0.000229674575260271,0.000212520979526061,0.000343466853836277,0.000785662408622609
0.000576379870478639,0.00163801383587142,0.00121162039799193,0.00342601410434199
6.71293776510939e-05,3.9354895444249e-05,4.75769327085027e-05,0.000154061205803846
3.03739582801373e-05,1.7380037075861e-05,2.80158255701219e-05,7.57698209261202e-05
0.000175980005611657,0.000103319921937709,0.000100403515980216,0.000379703443529582
4.40081143156787e-05,7.78934130263307e-05,4.52076842899374e-05,0.000167109211631947
3.27235689602428e-05,8.3451075930344e-05,3.96192826463778e-05,0.000155793927536965
2.78922346053617e-05,0.000106768120322694,2.56123122962549e-05,0.00016027266722431
7.17075960047712e-05,0.000121999371969153,6.77562466946162e-05,0.000261463214668541
3.34268157201728e-05,2.63035042210035e-05,3.28876779552871e-05,9.26179978964634e-05
0.000120951830973057,1.52372985027575e-05,2.81670170986602e-05,0.000164356146574475
0.00011626280095549,6.59463111579709e-05,5.29203953629595e-05,0.000235129507476421
0.000273891758943495,0.000344102115755598,0.000465828354057075,0.00108382222875617
0.000301088375510474,0.000324108701285051,0.000378659581855442,0.00100385665865097
0.000357644295867219,0.000379838956296131,0.000389824635254217,0.00112730788741757
0.000305199676595467,0.000357622493963531,0.000352026279689065,0.00101484845024806
0.000226504725628258,0.000326748045381382,0.000332413197576617,0.000885665968586258
0.000319850076541561,0.000345924117093714,0.000488413716130475,0.00115418790976575
0.000211422023965227,0.000267827320882463,0.00034109883911971,0.0008203481839674
0.000194773595386442,2.86385575562821e-05,5.0302598449396e-05,0.00027371475139212
5.74069682244689e-05,9.64192342432025e-05,0.000149214086074712,0.000303040288542383
2.79219995687348e-05,3.0536662944742e-05,5.05923227257126e-05,0.000109050985239189
0.000104473861399845,0.000201439160907202,0.000218138964898915,0.000524051987205962
0.000345344500535166,0.00183431488424216,0.00124976860343348,0.00342942798821081
0.000253668416294883,0.000328566591138073,0.000333880874666754,0.000916115882099709
1.56244431261848e-05,2.96375102131372e-05,2.89701963287179e-05,7.42321496680398e-05
2.7398466833719e-05,1.41856238788434e-05,2.76394614778533e-05,6.92235521904157e-05
1.58184123355649e-05,6.9453525780707e-06,2.15168121939897e-05,4.42805771076254e-05
2.47544260154261e-05,1.4004566562811e-05,2.72711489161793e-05,6.60301414944164e-05
1.66479850075242e-05,1.27277280258785e-05,2.31596703200268e-05,5.25353833534295e-05
0.000189184742246336,0.000180397724992186,0.000193383088007356,0.000562965555245878
0.000158807209705677,0.000198400693126834,0.000232576469097352,0.000589784371929863
0.000112186132171151,0.000103983398042691,0.000115878349587086,0.000332047879800928
2.35677954592915e-05,0.000112491712553715,2.78008270137705e-05,0.000163860335026777
7.78820508080616e-05,0.000274587809773704,7.14778373562555e-05,0.000423947697938021
7.28379451358842e-05,0.000115163461604859,0.000134115576947706,0.000322116983688449
5.12297228462487e-05,0.000140457598185353,7.01573833950174e-05,0.00026184470442662
3.51605483756263e-05,0.000159596721948198,3.23303062177567e-05,0.000227087576541581
4.11146442573699e-05,0.000184966641470721,3.40063226647281e-05,0.000260087608392819
7.11101585996435e-05,0.000336937424619872,0.000100130868355186,0.000508178451574701
0.00010350567771186,0.00032529850514843,0.000243752996323544,0.000672557179183833
2.06572803279656e-05,1.27477143964373e-05,2.68098603081988e-05,6.02148550326017e-05
0.000245822680344327,0.000342919093048589,0.000201206049613186,0.000789947823006102
8.93285813002963e-05,5.64555147058044e-05,0.00011204282946102,0.00025782692546712
0.00014601494198241,0.00015865910872712,0.000181863164109848,0.000486537214819378
0.000286278176628587,0.000273760646753578,0.000202476424206269,0.000762515247588433
0.000291154907063862,0.00102898689249554,0.000549415853982906,0.00186955765354231
0.000357639289900044,0.00114208030660135,0.000803292295440838,0.00230301189194223
0.000609889004895748,0.00152983583576209,0.000859825856383892,0.00299955069704173
0.000275429465918168,0.000534975713490525,0.000344222692604937,0.00115462787201363
0.000691544962296325,0.00209102803019377,0.000790424158091674,0.00357299715058177
0.00221907194264508,0.0080092109579119,0.00272441643223566,0.0129526993327926
0.00185476189734256,0.00580724520784355,0.00322931223399875,0.0108913193391849
0.00192743398886337,0.00724733087570309,0.00510463687641428,0.0142794017409807
0.00215903256545051,0.00700638098176772,0.00534027614416709,0.0145056896913853
0.00230777541348312,0.00753813977811453,0.00592792003207549,0.0157738352236731
0.00111791085732916,0.00229659540960664,0.00187159005184881,0.0052860963187846
0.000164035423415426,0.000149037148134607,0.000159062769354508,0.000472135340904541
0.00050098971108036,0.00101433274573991,0.000505809552028902,0.00202113200884918
0.000232781349627198,0.000234317221749832,0.000254970479793277,0.000722069051170307
0.000117977560622501,9.47943943265384e-05,0.000148525500964914,0.000361297455913954
9.41869849418421e-05,0.00011615108546176,0.000136389783317886,0.000346727853721488
5.97401513421214e-05,7.63078106191756e-05,0.000107655521706694,0.000243703483667991
8.94227305566098e-05,0.000223035469905268,0.000202213849525163,0.000514672049987041
2.52744226462713e-05,6.12743180204251e-05,8.69857481030071e-05,0.000173534488769703
4.65621068688918e-05,2.38958395999684e-05,7.40410811352171e-05,0.000144499027604077
5.751305201287e-05,7.78887801301788e-05,0.000105238872014958,0.000240640704158007
6.99987604754405e-05,0.000251343739153517,0.000279730482783344,0.000601072982412301
5.91322113159022e-05,0.00016421953864532,0.000193980805553913,0.000417332555515135
1.57156776594512e-05,1.30853306643039e-05,3.00906812931934e-05,5.88916896169484e-05
2.52981155660461e-05,1.81177638702259e-05,4.94590781027645e-05,9.28749575390365e-05
1.82391371345778e-05,1.22334814018642e-05,3.63892657983045e-05,6.68618843347465e-05
1.63008011284275e-05,6.73594615716732e-06,3.19307975774625e-05,5.49675448630573e-05
1.5074907559442e-05,8.52983711834292e-06,3.07357432761901e-05,5.43404879539751e-05
2.52345249042571e-05,3.46390848465288e-05,6.83238884282386e-05,0.000128197498179024
4.12908688901027e-05,3.76955769498672e-05,8.23001188448329e-05,0.000161286564684803
3.33570072779809e-05,6.11488296544743e-05,7.51095662263433e-05,0.000169615403158799
1.3577702669226e-05,2.43662525438831e-05,5.32449280680487e-05,9.11888832811578e-05
7.16645663382235e-05,0.000107907341301244,0.000124039683728554,0.000303611591368021
4.51249979116692e-05,9.27840858692774e-05,0.00011028475715229,0.000248193840933236
2.51232128503387e-05,5.00731189485337e-05,6.00687869381475e-05,0.00013526511873702
6.32507961830443e-06,6.17372848463575e-06,2.64641718288458e-05,3.89629799317859e-05
1.12676530130664e-05,4.33193996579252e-06,2.65447652095987e-05,4.21443581884576e-05
9.78946042382977e-06,4.77316098932612e-06,2.9617663597083e-05,4.41802850102389e-05
8.5108624469119e-06,5.41747534013451e-06,3.1005685042645e-05,4.49340228296914e-05
3.50891350267232e-05,5.6871125218322e-05,7.77007100190517e-05,0.000169660970264097
7.81227273349006e-05,0.000169419984050382,0.000154104686977965,0.000401647398363247
9.0834393877883e-05,0.000138660496902316,9.49063284412007e-05,0.0003244012192214
8.89300385655662e-05,0.000193359510875558,0.000221502618498315,0.000503792167939439
8.38347994953852e-05,0.000199886271700283,0.000205608811799451,0.000489329882995118
8.25764016172836e-05,0.000247555040842299,0.000210546308331753,0.000540677750791336
0.000111687475414113,0.000223925364617175,0.000220393136587612,0.0005560059766189
8.33327392449117e-05,0.0002245484538907,0.000182800308134191,0.000490681501269803
8.03745641048179e-05,0.000177642895879652,0.000168096646793791,0.000426114106778261
4.8501013485107e-05,6.40656401279124e-05,7.82629611306154e-05,0.000190829614743635
4.48855103574573e-05,6.45807329376285e-05,8.32565233034884e-05,0.000192722766598574
4.49710729331441e-05,0.000108688428867072,0.000113392737640599,0.000267052239440814
4.37551629983651e-05,0.000125221171154819,0.000149537263303652,0.000318513597456836
5.12206818722407e-05,0.000208639046650754,0.000206716228558633,0.000466575957081627
8.50533036309894e-05,0.000227128154114091,0.000188492849156574,0.000500674306901654
6.07858701369145e-05,0.000171778556862397,0.000159678781497127,0.000392243208496437
9.0472361320176e-05,0.000274659176676283,0.000231112856892548,0.000596244394889007
6.14784335878878e-05,0.00019171764447386,0.000163225295727123,0.00041642137378887
6.35840483559647e-05,0.000183298263227747,0.000177289070674126,0.000424171382257838
5.63906044819376e-05,0.000116615418838962,0.000102797040082667,0.000275803063403567
0.000119735097647256,0.000396626453339232,0.000304971970867566,0.000821333521854053
3.31598404391138e-05,0.000108901264857507,0.000104507843611497,0.000246568948908117
0.000149019466561332,0.000298229897577395,0.000252752515732969,0.000700001879871696
4.15716562506835e-05,0.000131560076564255,0.000131885201755395,0.000305016934570334
5.14448959541539e-05,0.000273940160656755,0.000166457095862333,0.000491842152473242
4.82968920453281e-05,0.00018233916593343,0.000119927682821051,0.000350563740799809
3.39979437637704e-05,0.000123314365759147,9.47466073511338e-05,0.000252058916874051
2.76722078899624e-05,8.24013005402693e-05,7.39035423278375e-05,0.000183977050758069
3.43061922383773e-05,0.000108482435208239,8.1239732354983e-05,0.000224028359801599
2.43779907571033e-05,7.20206493156075e-05,7.77269163742997e-05,0.00017412555644701
1.84376428132218e-05,5.05865208187945e-05,4.77071177537125e-05,0.000116731281385729
2.36119740474692e-05,9.66442474501769e-05,9.39929507078271e-05,0.000214249172205473
2.16438438923129e-05,5.32682563888664e-05,7.86935646368122e-05,0.000153605664917991
2.16938043416804e-05,6.08367194419708e-05,7.40239468185752e-05,0.000156554470602227
2.94374222916635e-05,0.000100760458190843,0.000105741587373145,0.000235939467855652
2.35777742573343e-05,6.9819098162751e-05,9.690082220816e-05,0.000190297694628245
2.04613471163713e-05,6.3498839885531e-05,8.68917618485547e-05,0.000170851948850457
1.74204276630207e-05,4.25158387827428e-05,6.28888917518e-05,0.000122825158197563
2.16892628151921e-05,8.28078688291168e-05,7.34142819960703e-05,0.000177911413640379
2.13933387292386e-05,6.24229104913299e-05,7.11386793879148e-05,0.000154954928608483
1.68255649010043e-05,5.47570810046594e-05,5.33542452430097e-05,0.000124936891148673
1.57720292560014e-05,5.56020719068173e-05,5.37603546137926e-05,0.000125134455776611
0.000106730471828197,0.000138799599645685,0.000123648953264491,0.000369179024738372
0.000105744726748895,0.000242594066365407,0.000179076966626199,0.0005274157597405
6.82626854409505e-05,9.98790415059968e-05,0.000150022628389476,0.000318164355336424
5.26261850648084e-05,0.000142652371442699,9.78681365037646e-05,0.000293146693011272
0.000113306758767656,0.00044072030576715,0.000460726980196145,0.00101475404473095
2.80316583277324e-05,6.29493359502739e-05,8.35102536192292e-05,0.000174491247897235
2.58530560128124e-05,6.55581833354915e-05,8.73115900196863e-05,0.00017872282936799
2.20194327413658e-05,6.65560097413359e-05,8.60846823095665e-05,0.000174660124792268
2.45714232408533e-05,6.39532920995619e-05,6.79839686317889e-05,0.000156508683972204
3.08136336438889e-05,6.8333726566665e-05,8.16028478381908e-05,0.000180750208048745
1.72829112875854e-05,3.54626599925381e-05,4.75591009254013e-05,0.000100304672205525
1.66087853299374e-05,4.02339951076146e-05,4.92889516970796e-05,0.000106131732134632
1.80980657773803e-05,5.5421061115944e-05,6.55527028455948e-05,0.000139071829738919
1.74106076201592e-05,3.77131980699161e-05,5.89426436948752e-05,0.00011406644938495
2.70798418823351e-05,6.94483848826679e-05,7.98161041457618e-05,0.000176344330910765
2.2315877673619e-05,4.78939999582797e-05,6.08005369567709e-05,0.00013101041458867
2.73190090716229e-05,6.02865327521759e-05,6.7154769031629e-05,0.000154760310855428
2.21753347942199e-05,2.59372131134701e-05,5.21168831479468e-05,0.000100229431055637
3.09340114990033e-05,6.41416989596219e-05,6.7763138184201e-05,0.000162838848642826
2.20186093157414e-05,4.19117491076959e-05,5.04618396860832e-05,0.00011439219810952
2.95907858019703e-05,8.25152392002163e-05,8.8401416682865e-05,0.000200507441685052
2.7715081742381e-05,4.200623227641e-05,8.02738014948136e-05,0.000149995115513605
3.08183499188891e-05,2.67122827395872e-05,4.81967436225244e-05,0.000105727376281001
2.07440515685045e-05,2.54913019475237e-05,4.31853514821876e-05,8.94207049982158e-05
2.19791952139914e-05,2.41198809534269e-05,3.55274016324804e-05,8.16264777998987e-05
2.8040806427383e-05,4.02259704756552e-05,3.76894421453063e-05,0.000105956219048344
2.74882354015124e-05,4.39186538777677e-05,4.25706020540767e-05,0.000113977491333357
2.47009419117747e-05,4.19896673011146e-05,5.42866323803988e-05,0.000120977241593288
2.21543582018233e-05,3.88072085238089e-05,5.80252398223011e-05,0.000118986806547933
2.32915668258628e-05,4.98721517415592e-05,6.2370534173123e-05,0.000135534252740545
1.4529893404179e-05,2.85140294632562e-05,3.81609811983837e-05,8.1204904065819e-05
1.56935033687095e-05,3.06947817280447e-05,4.29118538027994e-05,8.93001388995536e-05
1.90871223836649e-05,3.0677545539689e-05,4.37769637993905e-05,9.35416317227444e-05
1.62673187669409e-05,2.63791504044261e-05,3.73904408818228e-05,8.00369100531897e-05
2.07399394068101e-05,3.79251996397969e-05,5.16426782987023e-05,0.000110307817345309
1.77679924541212e-05,3.09022871065695e-05,5.12616783578076e-05,9.99319579184983e-05
1.65684472211981e-05,2.5819572690611e-05,3.96674069617729e-05,8.2055426873582e-05
2.20905101247902e-05,5.18371826477909e-05,6.55372602597853e-05,0.000139464953032366
2.26595827875076e-05,4.67136326732428e-05,7.25579697601074e-05,0.000141931185220858
2.10971523999892e-05,6.09188156667487e-05,7.75275023283044e-05,0.000159543470395042
1.94080341520968e-05,5.78269019208472e-05,8.12345918138508e-05,0.000158469527886795
2.05358492296751e-05,7.01178454891408e-05,9.0526128857683e-05,0.000181179823576499
2.36951306214658e-05,7.42006053892755e-05,0.000102687339683234,0.000200583075693975
1.93586361459778e-05,4.40031022208525e-05,6.24734252971293e-05,0.00012583516366396
3.25272021302791e-05,8.62788329448317e-05,0.000125631605928719,0.000244437641003829
2.55742573127238e-05,5.72407590580788e-05,8.09649428640844e-05,0.000163779959234887
2.39549605474652e-05,5.13376612424599e-05,6.61785346852825e-05,0.000141471156475208
2.53369312885331e-05,5.3074103175707e-05,7.88498372314376e-05,0.000157260871695678
2.20575057483136e-05,5.59011300276185e-05,7.7746225211626e-05,0.000155704860987558
1.86650430129551e-05,4.00096256988141e-05,5.64641228674379e-05,0.000115138791579207
2.27918701274677e-05,5.14277042751418e-05,6.610712439487e-05,0.00014032669879748
2.33588592431181e-05,5.07005934680272e-05,7.70446932964487e-05,0.000151104146007594
2.59677599199282e-05,6.1125336313175e-05,8.33676768010143e-05,0.000170460773034117
2.77919290874673e-05,4.27508996856001e-05,5.97461833778546e-05,0.000130289012150922
3.18894424647308e-05,7.18062761993802e-05,9.9748191266041e-05,0.000203443909930152
3.58058769947725e-05,9.86647777647351e-05,0.000106042796401669,0.000240513451161176
3.98232547936221e-05,0.000123636032840815,0.000129679311780661,0.000293138599415098
4.40116978749337e-05,0.000146016686632988,0.000154670203979908,0.00034469858848783
2.58925650260247e-05,8.29846371288843e-05,8.77289823180993e-05,0.000196606184473008
2.75985476447336e-05,4.73512780164639e-05,5.43371661108902e-05,0.000129286991772088
2.20862940289355e-05,4.70218897398141e-05,5.9338958564082e-05,0.000128447142332832
1.96335984595127e-05,4.09653159523014e-05,5.74139210053485e-05,0.000118012835417163
2.70383765939643e-05,7.89608691923804e-05,0.000112349872665247,0.000218349118451592
3.89117277344487e-05,0.000139196997863127,0.000131304517243907,0.000309413242841483
2.20804190271199e-05,4.34658152447426e-05,6.2991429797015e-05,0.000128537664068877
2.7555501286088e-05,8.62829400926385e-05,0.000126694136629686,0.000240532578008413
2.13540026572103e-05,4.93125029571372e-05,6.79417097512782e-05,0.000138608215365626
2.37484552645934e-05,5.7991273192461e-05,6.62402410150284e-05,0.000147979969472083
4.23457226240837e-05,0.000108949302705915,0.000109413006771302,0.000260708032101301
4.41195858187667e-05,0.000104585241384655,0.00011827550844346,0.000266980335646882
3.89810046345111e-05,0.000111839324614068,0.000119232076196884,0.000270052405445463
6.72342175827327e-05,0.000155203677384914,0.000167156110846753,0.0003895940058144
7.52974268660377e-05,0.000147051700573618,0.000158332755029168,0.000380681882468824
5.1596047767719e-05,0.000138784816225608,0.000130852969600035,0.000321233833593362
4.26711748085416e-05,0.000116903151766784,0.00013620330254089,0.000295777629116216
3.41964695196427e-05,7.69611716640081e-05,8.78180479874066e-05,0.000198975689171057
0.000104653506593326,0.000364969766050382,0.000386050772192367,0.000855674044836075
6.23775570914648e-05,0.000241879548001708,0.000350870037273877,0.00065512714236705
1.67397993639383e-05,3.69369953127122e-05,8.58279498109856e-05,0.000139504744487636
6.06632003236326e-06,1.07679464981243e-05,2.46013089144548e-05,4.14355754449423e-05
1.09611364917459e-05,1.67626914618458e-05,3.33373589778517e-05,6.10611869314433e-05
1.22871396066848e-05,1.82165077892202e-05,3.23155606250811e-05,6.28192080209861e-05
1.61608546625667e-05,4.15180632902265e-05,4.9519421684853e-05,0.000107198339637646
1.15849415934047e-05,2.86581132426468e-05,6.42370972495492e-05,0.000104480152085601
1.50362065276923e-05,2.49656961520847e-05,3.89518442159836e-05,7.89537468957605e-05
1.10316293968299e-05,2.0069962848908e-05,3.50721058029492e-05,6.61736980486871e-05
1.87351427599364e-05,4.67656540796067e-05,7.94586318266069e-05,0.00014495942866615
1.19975095883898e-05,1.99846503729894e-05,3.25882485966068e-05,6.45704085579861e-05
1.38593868363593e-05,2.24854586708393e-05,4.17649852345926e-05,7.81098307417912e-05
2.15432377555621e-05,4.11174415804655e-05,7.74363658468296e-05,0.000140097045182857
1.14780547378241e-05,1.64697916920675e-05,4.71064439849715e-05,7.50542904148631e-05
1.23571689945985e-05,2.26366617198821e-05,4.36706600509482e-05,7.86644907654287e-05
1.83725493809057e-05,4.10939378650446e-05,5.62264063089452e-05,0.000115692893554896
5.92399936184803e-06,1.01301665173146e-05,2.70194382037205e-05,4.30736040828832e-05
3.95175326246294e-05,4.39592660962743e-05,5.81343146242281e-05,0.000141611113345132
3.61322791678504e-05,2.27506878489833e-05,4.62039507459778e-05,0.000105086917762811
4.00172978838336e-06,3.64545677843833e-06,1.03402891751255e-05,1.79874757419472e-05
0.000171184141003537,0.000116073101982519,0.000291913439402909,0.000579170682388965
0.000325052698559591,0.000409673137103772,0.000344534197648869,0.00107926003331223
0.000246301390669007,0.000119111024436583,0.000207457745003572,0.000572870160109163
0.000112517581855753,0.000222956347085228,0.000179856782641545,0.000515330711582526
0.000377263588552855,0.00212839151301263,0.00122683341539009,0.00373248851695558
0.000831087738796215,0.00368943105188397,0.0019381742566129,0.00645869304729308
0.000576314755350967,0.00280358108733188,0.00154784469826414,0.00492774054094699
0.00161807507814779,0.00461384602463244,0.00271892619429915,0.00895084729707938
0.000589463403730154,0.00279284160625274,0.00130366524144983,0.00468597025143272
0.00055282266455949,0.00251472043628348,0.00115353349933919,0.00422107660018216
0.000813031041609806,0.00325970162718788,0.00161104155820111,0.00568377422699879
0.000319252292190593,0.00149362470338872,0.000489291774501252,0.00230216877008056
0.000300131167617333,0.00171622832040627,0.000515093258269414,0.00253145274629302
0.00028287049144118,0.00173280202039709,0.000566346001364917,0.00258201851320318
8.98894678518132e-05,0.000569380419713268,0.000234984389114562,0.000894254276679643
4.64687793475248e-05,0.000213238197958761,8.39827706223147e-05,0.0003436897479286
2.61744660405868e-05,4.16615123626875e-05,3.8486002627576e-05,0.00010632198103085
6.31934165460065e-06,4.1868526311413e-06,1.38472464184488e-05,2.43534407041908e-05
3.64358440164324e-05,2.50610834460192e-05,4.66263349926004e-05,0.000108123262455052
7.76727201466612e-05,0.000136258640352173,0.000100578707033056,0.00031451006753189
0.000768131838543286,0.00306334278228072,0.001559126284129,0.005390600904953
0.00137274302810173,0.00518474860692817,0.0030456053158839,0.00960309695091379
0.00108803850184582,0.00492517667661591,0.00283531104539689,0.00884852622385862
0.000754194954092562,0.00272167517226102,0.00139122435849854,0.00486709448485212
0.000948515664289962,0.00311738985190839,0.00097616688202079,0.00504207239821914
0.000970323382297301,0.00319508322679835,0.00121104652958582,0.00537645313868147
0.00086533583096516,0.00357255521855482,0.00148454337818123,0.00592243442770121
0.000151876096346006,0.000644435101531967,0.000295359616312673,0.00109167081419065
4.74236008568712e-05,0.000153062078561753,0.00010870178388642,0.000309187463305044
0.000207067498653828,0.000906561087321697,0.000467159282847284,0.00158078786882281
1.69511285633844e-05,2.18073273335997e-05,2.94275921287003e-05,6.81860480256845e-05
5.38151671869272e-05,0.000127386536154201,6.58754344820176e-05,0.000247077137823146
8.16211726149576e-05,0.000131438677678534,0.000107241783335786,0.000320301633629278
8.14641355515533e-05,0.000179871378841779,8.34994163605895e-05,0.000344834930753921
7.6350008728566e-05,7.27095666530112e-05,5.3035166230901e-05,0.000202094741612478
4.55118618984579e-05,7.67695082054215e-05,5.72534345081459e-05,0.000179534804612025
6.53141772209523e-05,5.16804202748153e-05,5.90027124648508e-05,0.000175997309960618
4.99467503470665e-05,0.00017724739456173,0.000117814485054794,0.000345008629963591
0.000211128522076498,6.72500356718097e-05,0.000107665745889381,0.000386044303637688
1.28637568034374e-05,1.02493778749105e-05,2.25237314472112e-05,4.56368661255591e-05
3.50924046786782e-06,3.01612135175938e-06,9.15178807565457e-06,1.56771498952818e-05
3.29219246102266e-06,3.02850706611311e-06,9.13920375062584e-06,1.54599032777616e-05
3.35235254018851e-06,3.02191158927772e-06,9.75054722919047e-06,1.61248113586567e-05
1.86394217121592e-05,1.6482252716722e-05,2.62163806681079e-05,6.13380550969891e-05
1.72822640220345e-05,1.20191205293709e-05,1.82891773400881e-05,4.75905618914935e-05
5.76964012423296e-06,7.22385104330113e-06,1.91168867286976e-05,3.21103778962316e-05
9.22319101018571e-06,8.2400517498153e-06,1.76439678465922e-05,3.51072106065932e-05
6.21709416360267e-06,6.87513564058706e-06,1.43247993303043e-05,2.7417029134494e-05
3.6241101301802e-05,3.88188281191091e-05,6.99922632294572e-05,0.000145052192650368
1.86574410904746e-05,2.23504262919549e-05,4.0585771365875e-05,8.15936387483045e-05
1.88658787451199e-05,1.87631822190112e-05,4.62521363486258e-05,8.38811973127568e-05
7.70545815496275e-06,5.808513669135e-06,1.24243251482936e-05,2.59382969723914e-05
4.84219577727382e-06,5.69089280632119e-06,1.1331929476845e-05,2.186501806044e-05
3.24771257270305e-06,2.57827257935918e-06,8.30970268669765e-06,1.41356878387599e-05
4.73662583627579e-06,5.608468059824e-06,1.34815649568769e-05,2.38266588529767e-05
3.6901631025465e-06,3.66256320426605e-06,9.77334679446215e-06,1.71260731012747e-05
3.06308778283342e-06,2.59605241749042e-06,8.05127498344372e-06,1.37104151837676e-05
3.37632040343814e-06,3.6434906710771e-06,8.79569934795958e-06,1.58155104224748e-05
1.06393292092524e-05,1.14756457690993e-05,1.77027852150736e-05,3.98177601934253e-05
7.939162118819e-06,4.12425058557381e-06,9.7750066897809e-06,2.18384193941737e-05
6.36575604875761e-06,3.71469327831757e-06,9.53685038640406e-06,1.96172997134792e-05
8.55125777103963e-06,6.2109783190215e-06,1.19529635864331e-05,2.67151996764942e-05
1.38604598864824e-05,1.03414706949362e-05,1.23468792844944e-05,3.65488098659131e-05
5.53844379230811e-06,3.32888355786368e-06,9.53969658984534e-06,1.84070239400171e-05
1.22229838477577e-05,5.20760049441821e-06,1.03978751442411e-05,2.7828459486417e-05
7.02639251253395e-06,3.55248877245635e-06,9.04260140064306e-06,1.96214826856334e-05
6.89178576833985e-06,3.4957103297841e-06,8.80980831388594e-06,1.91973044120099e-05
5.94080422186913e-06,3.27811668201898e-06,8.91499589248854e-06,1.81339167963767e-05
8.53247041933918e-06,3.90985186970359e-06,1.11765987204591e-05,2.36189210095019e-05
7.25150489541675e-06,3.71677507638803e-06,1.01077186533837e-05,2.10759986251885e-05
8.4728990655957e-06,4.30305269436707e-06,9.37332555735647e-06,2.21492773173192e-05
7.80960849329503e-06,3.55318143508979e-06,9.57022383284843e-06,2.09330137612333e-05
8.44691823162703e-06,3.60987614614545e-06,1.04591794718405e-05,2.2515973849613e-05
1.17159040943451e-05,6.88709018985589e-06,1.15077240819006e-05,3.01107183661017e-05
6.60254367381196e-06,3.34504050585553e-06,9.13158991751158e-06,1.90791740971791e-05
6.8287265922338e-06,3.15358897468595e-06,9.34532456070539e-06,1.93276401276251e-05
8.31760893249332e-06,3.76539020147997e-06,1.03652889061423e-05,2.24482880401156e-05
9.29530551457843e-06,5.406069729468e-06,1.09905493716334e-05,2.56919246156799e-05
1.0637716087751e-05,7.58844664183709e-06,1.09397302459053e-05,2.91658929754934e-05
4.56621189907029e-05,3.56359939000691e-05,4.04728874864416e-05,0.000121771000377214
6.42778373483656e-06,4.32935955729253e-06,9.87376017618476e-06,2.06309034683139e-05
6.23835197022424e-06,3.48382755238365e-06,9.15955869437288e-06,1.88817382169808e-05
5.52789344263005e-06,2.99497782995334e-06,8.70616957812546e-06,1.72290408507088e-05
5.35167001634596e-06,2.95431459004257e-06,7.96563720539462e-06,1.62716218117831e-05
5.38874295220985e-06,2.94035927049841e-06,8.30001181842817e-06,1.66291140411364e-05
4.78042267516021e-06,3.1428569198184e-06,8.70547248634472e-06,1.66287520813233e-05
7.37654944353911e-06,3.49708655201993e-06,9.06093345469582e-06,1.99345694502549e-05
6.20794773112071e-06,3.09333236852464e-06,9.11331484659689e-06,1.84145949462422e-05
6.03766468321176e-06,3.01813932900105e-06,8.83801442948527e-06,1.78938184416981e-05
6.61591179412106e-06,3.46829062876303e-06,8.79031200520489e-06,1.8874514428089e-05
3.06745951174523e-05,2.19990616567542e-05,2.84394675325691e-05,8.11131243067756e-05
1.22870079069701e-05,5.46879944632077e-06,1.12301394044229e-05,2.89859467577138e-05
6.61208776878362e-06,3.47564827945246e-06,8.53535681930456e-06,1.86230928675406e-05
6.61583995245166e-06,2.98729574660655e-06,7.9221662055854e-06,1.75253019046436e-05
7.93509405329174e-06,3.49462601932134e-06,8.34357035017998e-06,1.97732904227931e-05
9.02143846192542e-06,3.94078693671684e-06,8.91517701435815e-06,2.18774024130004e-05
7.37403618064688e-06,3.56428298352329e-06,8.11100850805324e-06,1.90493276722234e-05
1.05438124030926e-05,3.97239426302273e-06,9.80880762175741e-06,2.43250142878727e-05
1.44815919854544e-05,4.56583611998027e-06,9.65690657547765e-06,2.87043346809123e-05
1.15120175906751e-05,6.46508214570448e-06,1.07143726953413e-05,2.86914724317209e-05
8.38441035710995e-06,5.57352725858881e-06,1.14999200291992e-05,2.5457857644898e-05
1.53456310476668e-05,5.16645427385336e-06,1.1313829879324e-05,3.18259152008441e-05
1.43189208900638e-05,4.89294881460774e-06,1.02675079797539e-05,2.94793776844254e-05
1.46243393164145e-05,4.51624950659652e-06,1.01410227455809e-05,2.92816115685919e-05
1.26038879271548e-05,4.41696077546679e-06,1.01925342183998e-05,2.72133829210214e-05
9.14861932887101e-06,3.62842229528409e-06,8.49285129927172e-06,2.12698929234268e-05
5.28771663648511e-06,2.99558784029274e-06,7.76014953297954e-06,1.60434540097574e-05
4.12783671201301e-06,4.9152956681413e-06,8.27081454719181e-06,1.73139469273461e-05
8.68130079676419e-06,9.51772141113528e-06,1.42328236391498e-05,3.24318458470493e-05
2.16419407745276e-05,1.29845949126928e-05,2.12706768564712e-05,5.58972125436916e-05
1.54239071107483e-05,5.79682480162471e-06,1.17248478816148e-05,3.29455797939878e-05
1.95109528608569e-05,1.03649209349985e-05,1.83742118826109e-05,4.82500856784663e-05
8.91023995486453e-06,3.23869491208192e-06,7.45832478250609e-06,1.96072596494525e-05
1.04754083133875e-05,6.1738194722231e-06,1.07416701161601e-05,2.73908979017707e-05
1.05112410119275e-05,6.62678128028569e-06,1.40721680390146e-05,3.12101903312277e-05
8.53756325834208e-06,3.51763128243283e-06,8.61443299539364e-06,2.06696275361685e-05
3.2097323317831e-06,2.33798261645919e-06,6.30383961280185e-06,1.18515545610441e-05
3.1241279134899e-06,2.47599690539975e-06,6.65638851676531e-06,1.2256513335655e-05
5.33539167936161e-06,4.52051123035573e-06,1.07811492443101e-05,2.06370521540274e-05
3.06574092626654e-06,2.51112731192655e-06,7.17928026491257e-06,1.27561485031057e-05
5.14482026601795e-06,5.05693944910153e-06,8.94890067351217e-06,1.91506603886316e-05
5.91204530519291e-06,4.97738026126243e-06,9.59559300943093e-06,2.04850185758863e-05
6.81117250129872e-06,7.15443720979884e-06,9.97467184328839e-06,2.39402815543859e-05
3.38412998950014e-06,2.57363580220513e-06,7.92780064857479e-06,1.38855664402801e-05
3.25093239164738e-06,2.47547561374336e-06,7.97656820313201e-06,1.37029762085227e-05
3.72433373570587e-06,2.74316237338683e-06,8.42927534292904e-06,1.48967714520217e-05
5.80694140196595e-06,3.5212546132613e-06,1.00548593991151e-05,1.93830554143423e-05
4.45790656294496e-06,2.99078296425507e-06,8.9106334130146e-06,1.63593229402146e-05
3.9732827218989e-06,3.01525068582227e-06,9.72402031471355e-06,1.67125537224347e-05
5.76412987449926e-06,4.17693723965932e-06,1.10394372024483e-05,2.09805043166069e-05
4.64422932951076e-06,3.4952579019773e-06,1.06113695118725e-05,1.87508567433605e-05
4.336232962408e-06,3.07929648566264e-06,1.02180893095859e-05,1.76336187576565e-05
4.05239270999582e-06,2.93620708480659e-06,1.03203816132141e-05,1.73089814080165e-05
4.1614283387804e-06,3.00786948613079e-06,9.55397320433254e-06,1.67232710292437e-05
1.52132496487928e-05,1.21540901504443e-05,2.92343756187316e-05,5.66017154179687e-05
7.28212373555146e-06,4.36281116728596e-06,1.18868083738342e-05,2.35317432766716e-05
4.73021262961724e-06,3.35825895138438e-06,1.03975088164708e-05,1.84859803974724e-05
5.15932607524425e-06,3.74888280346999e-06,9.98170816816376e-06,1.8889917046878e-05
5.06049066346061e-06,3.22855464680563e-06,9.77794974787457e-06,1.80669950581408e-05
5.76717172681203e-06,3.1971947439097e-06,9.97760520698122e-06,1.89419716777029e-05
5.8353613729166e-06,3.50890254933249e-06,1.06107666203785e-05,1.99550305426276e-05
4.50985499504872e-06,2.91470303501358e-06,9.49830193600811e-06,1.69228599660704e-05
5.70027695118772e-06,3.29896885753952e-06,9.87499949724155e-06,1.88742453059688e-05
5.58794659831934e-06,3.63124826459331e-06,1.0486832556085e-05,1.97060274189977e-05
3.61822526142064e-06,2.40856436434835e-06,8.54956236892748e-06,1.45763519946965e-05
2.99914655886114e-06,2.3996088915805e-06,7.88339346140899e-06,1.32821489118506e-05
3.15657090573296e-06,2.46826929191133e-06,8.35088188054831e-06,1.39757220781926e-05
4.1049776988597e-06,2.7886532276421e-06,9.26421394087761e-06,1.61578448673794e-05
3.24478691254325e-06,2.52526615622622e-06,8.25034314323173e-06,1.40203962120012e-05
1.1707196402215e-05,1.81794897600618e-05,2.97060762547488e-05,5.95927624170257e-05
1.18265948834894e-05,1.08288825697758e-05,1.62268010258845e-05,3.88822784791497e-05
4.96690485056247e-06,9.24454119274773e-06,1.90637535198618e-05,3.3275199563172e-05
3.55973244658576e-06,3.00264300730891e-06,8.50209917646661e-06,1.50644746303613e-05
4.83512107557362e-06,3.26939435694056e-06,9.73117035122891e-06,1.78356857837431e-05
4.00164762695472e-06,2.98547975531153e-06,8.90899603090043e-06,1.58961234131667e-05
1.51528600775488e-05,1.21768422389896e-05,1.86216927335957e-05,4.5951395050134e-05
8.39622648601739e-05,7.9834401934616e-05,8.222537542359e-05,0.00024602204221838
6.74340152684893e-05,4.86988116396234e-05,5.39937728240793e-05,0.000170126599732192
5.67845301461833e-05,6.25775701197964e-05,5.63854535726546e-05,0.000175747553838634
4.29249392000127e-05,3.57311301255575e-05,4.75482514530386e-05,0.000126204320778609
0.000119001323805803,9.15171245392348e-05,9.46550084683211e-05,0.000305173456813359
0.000131810066174122,6.02469205335311e-05,0.000102327545900035,0.000294384532607688
0.00054483873082648,0.00187849362278591,0.000956307014598292,0.00337963936821068
0.00047726379073527,0.00167842055770704,0.000782340018982763,0.00293802436742508
0.000642769610581751,0.00230807665235082,0.00106376798331931,0.00401461424625188
0.000210283760234868,0.000920170830506574,0.000347565461633189,0.00147802005237463
0.000213629783740661,0.000768111929205478,0.000341062916917813,0.00132280462986395
0.00041257024889612,0.00142358489555499,0.000664597787473131,0.00250075293192424
0.000885785023483387,0.00430914351241415,0.0026389154262461,0.00783384396214364
0.000873364435194192,0.00413404645602279,0.00209582347446017,0.00710323436567715
0.0010914660292204,0.00427346694305849,0.00278684655367532,0.00815177952595421
0.000891874990341893,0.00402312675131149,0.00230891358737328,0.00722391532902667
0.000484399438763092,0.0020600895599997,0.000922404261513623,0.00346689326027642
0.000641312774552525,0.0015065382579099,0.000807734794349999,0.00295558582681242
6.43673476037225e-05,8.15574395208608e-05,0.000176971344738906,0.000322896131863489
0.000167730807030884,0.000467239741392793,0.000336313716089476,0.000971284264513152
0.000106177108117433,0.000193517886741043,0.000139347462942907,0.000439042457801383
6.11073140187326e-05,4.75805953893213e-05,0.000118170684317701,0.000226858593725755
0.000148745094727852,0.000157996889011144,0.000285517313324616,0.000592259297063612
4.64499173552075e-05,3.3554679698321e-05,8.36046895187258e-05,0.000163609286572254
7.42228361008961e-05,4.86006034940481e-05,0.000104871095123769,0.000227694534718714
5.04272243409996e-05,1.87578182542892e-05,5.4830188059594e-05,0.000124015230654883
6.1558363440189e-05,5.51744207777836e-05,6.08345815362868e-05,0.000177567365754259
4.92714520824572e-05,4.81060291389078e-05,6.0288151296245e-05,0.00015766563251761
0.000203385627193629,0.000310084187338994,0.000171534163167375,0.000685003977699998
0.000142044286105214,0.000212993660306829,0.000153045484421194,0.000508083430833236
0.000306145798716422,0.000731241566903236,0.000380270665651317,0.00141765803127098
7.35540131718702e-05,4.63139802757897e-05,6.41683713973455e-05,0.000184036364845005
2.82630475073712e-05,1.61183282356882e-05,2.79372613652276e-05,7.23186371082869e-05
8.17363039753505e-06,9.37542463691222e-06,2.14059691991669e-05,3.89550242336142e-05
8.29684238674191e-06,5.59970229947106e-06,1.70011475375397e-05,3.08976922237527e-05
3.64940763287546e-06,3.06324967193331e-06,9.33373838685764e-06,1.60463956916664e-05
1.46018913985574e-05,1.04700224723702e-05,2.03240600754036e-05,4.53959739463312e-05
0.000224228359232871,0.000129269559982323,0.00022474326364347,0.000578241182858664
0.000395376127174092,0.000143885220702641,0.000153798373953159,0.000693059721829892
1.64251954619557e-05,1.51525418373378e-05,2.53423439811758e-05,5.69200812804693e-05
7.39954428418674e-05,3.40837362800767e-05,5.68050779664388e-05,0.000164884257088383
3.94897096550191e-06,3.36561173779039e-06,1.00939729139326e-05,1.74085556172249e-05
4.0717570363226e-06,5.28328347829842e-06,1.03360361951197e-05,1.96910767097407e-05
5.05629520949753e-06,5.02682671882633e-06,1.10163594560857e-05,2.10994813844096e-05
3.76298957990752e-06,4.40686784366787e-06,8.76600462314554e-06,1.69358620467209e-05
3.67846388371673e-06,3.3331671503116e-06,9.08780237551134e-06,1.60994334095397e-05
4.24607675396413e-06,4.32705998508003e-06,1.20350600683424e-05,2.06081968073866e-05
2.20277313666492e-05,2.43152610637448e-05,2.82647011424542e-05,7.46076935728482e-05
8.73812955564044e-05,5.7572663005384e-05,0.000105362921733665,0.000250316880295454
4.42808027684324e-05,3.79627602028033e-05,0.000428668218355465,0.000510911781326701
6.55486489329574e-05,4.77922290648418e-05,8.17981102243405e-05,0.00019513898822214
0.000106890129072735,5.66136853851814e-05,7.22354774104817e-05,0.000235739291868398
6.82060665129463e-05,4.6541669768682e-05,6.36603682953378e-05,0.000178408104576966
2.29596457817051e-05,1.85135097200146e-05,3.56378404635973e-05,7.7110995965317e-05
3.54370989112514e-05,5.05917090152171e-05,6.66008361864033e-05,0.000152629644112872
3.33044866942094e-05,3.08573981661344e-05,6.26977008155786e-05,0.000126859585675922
4.12794169204996e-05,3.68692302718312e-05,6.08774860198172e-05,0.000139026133212148
5.36355715328623e-05,3.87190016787128e-05,5.8941981454242e-05,0.000151296554665817
5.02220706407133e-05,9.39731625504142e-05,0.000116710440718769,0.000260905673909897
6.08104417731116e-05,8.27447711024805e-05,0.000162657408832875,0.000306212621708467
8.40575247789566e-05,8.50901770653634e-05,9.97305438526851e-05,0.000268878245697005
0.000114282022841947,6.80316368715764e-05,0.000141027840277826,0.000323341499991349
6.69941889894389e-05,4.3474859147108e-05,8.47942125594728e-05,0.00019526326069602
0.000179405503977578,8.44648805901888e-05,0.000142410137842179,0.000406280522409945
5.45444961449914e-05,5.22661360056197e-05,0.000112159842551598,0.000218970474702209
6.96087072926114e-05,7.01517755428767e-05,9.89066497712696e-05,0.000238667132606758
0.000255359800904677,0.000186904232323262,0.000201610026649557,0.000643874059877496
0.000159924486622355,6.73274258073067e-05,0.00011631950527607,0.000343571417705731
9.32435289137761e-05,9.64510524625015e-05,0.000116308282731575,0.000306002864107852
4.87807165045143e-05,6.54077859432955e-05,6.32778845213109e-05,0.000177466386969121
0.000113662232838196,0.000133356184780929,0.000229686361414892,0.000476704779034017
0.000122009246710651,8.50682855339328e-05,0.000105587800868146,0.00031266533311273
0.000105069553557403,0.000118281341753569,0.000250832253813708,0.00047418314912468
0.000126936349493971,0.000174814653608024,0.000108509305515901,0.000410260308617896
0.000113867375747731,0.000135855424042526,0.000140303569908916,0.000390026369699173
9.03673804624207e-05,0.000136641026030171,0.00011487771428426,0.000341886120776852
8.9532003052212e-05,5.01537259645152e-05,8.96720618517058e-05,0.000229357790868433
0.000112925830046425,7.30478220886867e-05,0.000138544448501172,0.000324518100636284
8.21353434167277e-05,7.80032930029513e-05,0.000134669601549214,0.000294808237968893
0.000178170148095013,0.000228134680710051,0.000260255911793203,0.000666560740598267
0.000102007598352431,0.0001821509037497,0.000121832511040315,0.000405991013142446
0.00120135991912049,0.00222609954893976,0.00180242636085004,0.0052298858289103
0.00123427114533797,0.00408695100418791,0.00299212884301473,0.00831335099254061
0.00125839552217295,0.00366835021938714,0.00296629302066585,0.00789303876222594
0.00174185395494764,0.00502070798589397,0.00399084427994996,0.0107534062207916
0.00165933829012418,0.00548437697225386,0.00451620336825113,0.0116599186306292
0.00183616327748373,0.00461841253141186,0.00402827989184275,0.0104828557007383
0.00194561230900755,0.00507457497414128,0.00435991968380305,0.0113801069669519
0.00311102091719331,0.00711852295070385,0.0057883937565764,0.0160179376244736
0.00219392416435983,0.00724219510324488,0.00644262679594092,0.0158787460635456
0.00295604335184993,0.00797489076937522,0.00814638965720676,0.0190773237784319
0.00147604819470916,0.00601956751877382,0.00671964986514975,0.0142152655786327
0.00120191625812731,0.00565480084381043,0.00507889563819881,0.0119356127401365
0.00138247614216038,0.0066219782962597,0.00535645678208888,0.013360911220509
0.0017592080515764,0.00662620421794441,0.00601216018616249,0.0143975724556833
0.00165605157423991,0.00629168087266295,0.00570046314369933,0.0136481955906022
0.00211004335468348,0.00792188512466325,0.00650043449249506,0.0165323629718418
0.00149966668713545,0.00610592497947335,0.00559234146881469,0.0131979331354235
0.00129032368530833,0.00360699020380183,0.00381839254799712,0.00871570643710728
0.000817673353202578,0.0037413611244145,0.00296413640166681,0.00752317087928389
0.00115977164282129,0.00554459165556376,0.00613619903145129,0.0128405623298363
0.00061638817948889,0.00306142720595702,0.00237725102361039,0.0060550664090563
0.00103649602827446,0.00289508091876292,0.00234781751696676,0.00627939446400414
0.000788411311468968,0.00192048472046914,0.00113473953878291,0.00384363557072102
0.00064104454357692,0.00218737916672811,0.00161269987183223,0.00444112358213726
0.000194050379095873,0.000214248790025662,0.000261356606888122,0.000669655776009657
0.000410744576566477,0.00192122141192919,0.00142017421186327,0.00375214020035893
0.000771169570685935,0.00270832693473839,0.00180441583975619,0.00528391234518051
0.000627348212450217,0.00106320412699147,0.000788667796007337,0.00247922013544902
0.000117457129881264,0.000156633793299313,0.000136328672332431,0.000410419595513008
1.29249443038831e-05,7.57270654282115e-06,3.07286579770395e-05,5.12263088237437e-05
9.74402260904558e-06,6.78320936775026e-06,2.41843523564617e-05,4.07115843332575e-05
1.86324104455137e-05,3.58495464211157e-05,5.11518389409181e-05,0.000105633795807548
3.97993368983953e-05,8.85487472000385e-05,0.000144952580449423,0.000273300664547857
2.62541106762295e-05,2.5474674034612e-05,2.88587636936891e-05,8.05875484045306e-05
3.08960062663192e-05,2.77477863270383e-05,3.65381903170239e-05,9.51819829103814e-05
3.85264298460021e-05,5.8058972617443e-05,8.38986429816599e-05,0.000180484045445105
2.87037658363567e-05,2.19084217824205e-05,2.78191220856415e-05,7.84313097044186e-05
2.28259860746242e-05,1.80471992612195e-05,3.46855439614744e-05,7.55587292973181e-05
3.72043940138733e-05,5.21375125712544e-05,4.5694230975439e-05,0.000135036137560567
6.69320803613973e-05,7.09470250870666e-05,7.95863026819127e-05,0.000217465408130377
6.15778504110509e-05,2.98270311894107e-05,5.72238900474268e-05,0.000148628771647888
6.91249563717666e-05,0.000107609777302094,0.000116093477716773,0.000292828211390633
3.41321852931704e-05,5.85263408222195e-05,5.59475747643841e-05,0.000148606100879774
1.42361199822196e-05,1.92577939825505e-05,2.9739106939548e-05,6.32330209043182e-05
8.71042065643288e-05,0.000107232610922416,0.000210871571720643,0.000405208389207388
6.01546070168124e-05,5.35195780066716e-05,4.33140216735406e-05,0.000156988206697025
4.09392064217349e-05,3.53290541753433e-05,4.58760199866162e-05,0.000122144280583694
7.7705977810098e-05,4.54132829624044e-05,6.50029552513502e-05,0.000188122216023853
0.000277035357802163,0.000221944460948364,0.00027953704161876,0.000778516860369287
8.44742432753353e-05,5.08005453158886e-05,8.24871106370293e-05,0.000217761899228253
5.50729053264941e-05,3.14683481940075e-05,4.17753540037855e-05,0.000128316607524287
2.86306120188084e-05,2.26703252474599e-05,3.83991952725693e-05,8.97001325388377e-05
3.43150397179065e-05,2.03206677609332e-05,2.58954492330887e-05,8.05311567119285e-05
0.000116697547909743,0.000115880942565367,0.000100225626274732,0.000332804116749842
3.07197688927649e-05,1.28593878032403e-05,3.83110979775352e-05,8.18902546735403e-05
4.01932980933874e-05,1.81256553075302e-05,3.13372371077591e-05,8.96561905086767e-05
1.60272446133391e-05,1.22760073046354e-05,1.69595997098944e-05,4.52628516278689e-05
3.25098615103585e-06,2.79070332972596e-06,8.36073956686627e-06,1.44024290476281e-05
9.89526087132926e-06,6.06727150717623e-06,1.47068379862927e-05,3.06693703647982e-05
2.77351469194611e-05,1.24859267928111e-05,2.29617245731811e-05,6.31827982854534e-05
0.000308394840187475,0.000232141893760707,0.000240956442881481,0.000781493176829663
0.000117831311128066,0.000119609805221043,7.35929694617206e-05,0.00031103408581083
2.68799528203357e-05,3.74269073641163e-05,5.36670926489228e-05,0.000117973952833375
3.84485549691791e-05,0.000147093048425756,3.83780054814596e-05,0.000223919608876395
1.24786324324132e-05,8.48030095037763e-06,1.87225199884335e-05,3.96814533712244e-05
1.67346503203961e-05,1.52748917022781e-05,2.41337230177488e-05,5.6143265040423e-05
3.04739933741472e-06,2.61496705739406e-06,7.85255885302443e-06,1.35149252478332e-05
4.21833797117927e-06,4.32095646729742e-06,8.99340441423358e-06,1.75326988527103e-05
3.72139956505777e-06,4.3039736490647e-06,9.21871134415387e-06,1.72440845582763e-05
3.01662807878563e-06,2.62925570798613e-06,7.18201742016979e-06,1.28279012069415e-05
4.72637724120637e-06,3.89279949882108e-06,1.05258784616846e-05,1.91450552017121e-05
3.8512054040195e-06,3.03957970047076e-06,8.4922311639256e-06,1.53830162684159e-05
4.13586486139378e-06,3.42153025668498e-06,8.17122570207026e-06,1.5728620820149e-05
4.8049969115059e-06,6.61820853749724e-06,1.32294266052551e-05,2.46526320542582e-05
2.34826311388213e-05,1.49165642097718e-05,2.84224869069933e-05,6.68216822555864e-05
7.10415959141843e-06,4.59264847133436e-06,1.14400257245266e-05,2.31368337872794e-05
5.58645648884551e-06,3.79636721685961e-06,1.06739526072412e-05,2.00567763129463e-05
7.7783646304472e-06,3.65202348311809e-06,1.06889117586989e-05,2.21192998722642e-05
1.01461984614893e-05,7.79968181023456e-06,1.57989085188565e-05,3.37447887905804e-05
4.51574126074661e-05,3.31390159373537e-05,3.54082598380493e-05,0.000113704688382869
6.26130026477244e-05,5.69621683494645e-05,5.67010644461103e-05,0.000176276235443299
3.76252848813675e-05,1.86694301322386e-05,3.71955641601355e-05,9.34902791737416e-05
2.84304702056029e-05,2.42657197735638e-05,4.29334108582638e-05,9.56296008374305e-05
2.06985961925233e-05,8.77451503051128e-06,1.85393316678354e-05,4.801244289087e-05
2.01482023998134e-05,1.1911011725516e-05,1.84068261523393e-05,5.04660402776687e-05
3.8415347738749e-05,1.79808614504038e-05,2.51165076506969e-05,8.15127168398498e-05
4.31472546425008e-06,3.52037729171328e-06,8.86102602915079e-06,1.66961287851141e-05
1.65236716839871e-05,9.87760167552067e-06,1.94922490862159e-05,4.58935224457236e-05
7.20431681858848e-05,2.77478592049253e-05,4.52977721168323e-05,0.000145088799507642
2.85737754328505e-05,3.90413091375564e-05,3.74822129927378e-05,0.000105097297563145
6.34380079668561e-06,4.49189656667663e-06,9.77375049169589e-06,2.06094478550581e-05
7.13727545374512e-06,5.67476405797164e-06,1.20769295621819e-05,2.48889690738987e-05
4.60107555264219e-06,3.44578121461549e-06,9.93928399547411e-06,1.79861407627318e-05
2.40756187103328e-05,1.15268889742481e-05,2.24084548525451e-05,5.8010962537126e-05
3.89263575073095e-06,3.88946352308937e-06,8.36315138864944e-06,1.61452506624698e-05
3.7895672748403e-06,3.63731641278805e-06,8.55227628635994e-06,1.59791599739883e-05
8.03047481476772e-06,5.02486550613692e-06,1.2243898995529e-05,2.52992393164336e-05
4.82823175308601e-06,4.45698808805226e-06,9.91005856775523e-06,1.91952784088935e-05
7.45786967237303e-06,6.35163353774308e-06,1.59404873123747e-05,2.97499905224908e-05
6.10854770169568e-06,4.68041061210731e-06,1.16299466734164e-05,2.24189049872194e-05
4.86155325539362e-06,4.40386599545163e-06,1.03043133444208e-05,1.95697325952661e-05
3.78972807370549e-06,3.7379952897948e-06,9.63874009770227e-06,1.71664634612026e-05
4.40953673139904e-06,3.40014277185074e-06,1.0161554255084e-05,1.79712337583338e-05
4.2498820835235e-06,4.22312118958448e-06,1.03944838947354e-05,1.88674871678433e-05
5.43366301053508e-06,3.78610881656017e-06,9.57542914818661e-06,1.87952009752819e-05
1.09503399072891e-05,8.98498073519436e-06,1.86561292819615e-05,3.8591449924445e-05
4.83836465023228e-06,3.29767574468658e-06,9.96295081419084e-06,1.80989912091097e-05
4.35820242429503e-06,3.07717214216557e-06,8.7936682586546e-06,1.62290428251152e-05
6.15147799376103e-06,4.90537281842674e-06,1.24043862957784e-05,2.34612371079662e-05
4.59462751138689e-06,3.5904517023834e-06,1.04100944014227e-05,1.8595173615193e-05
5.3619912681216e-06,3.78915913407818e-06,1.0781269822238e-05,1.99324202244377e-05
6.69321928226179e-06,3.78519461608036e-06,1.00984393554255e-05,2.05768532537677e-05
5.64822196609693e-06,3.5751410408997e-06,8.72490975958426e-06,1.79482727665809e-05
1.42763712172317e-05,5.98689089620649e-06,1.35163681548155e-05,3.37796302682536e-05
5.2417206395527e-06,3.3634793319371e-06,1.12402359154305e-05,1.98454358869203e-05
4.22334337094798e-06,3.53873510836813e-06,1.00652123159189e-05,1.7827290795235e-05
6.00301848389745e-06,3.63774156694479e-06,9.76575262389006e-06,1.94065126747323e-05
8.288334450594e-06,6.13915403065888e-06,1.21091516982992e-05,2.6536640179552e-05
6.47527080325989e-06,4.10563880052537e-06,1.00359909945135e-05,2.06169005982987e-05
3.1400046844396e-06,2.56161524624493e-06,7.81174916700215e-06,1.35133690976867e-05
3.64826321257933e-06,2.83961352885212e-06,8.35255559894309e-06,1.48404323403745e-05
3.21121106008148e-06,2.56596712488027e-06,8.18056983592436e-06,1.39577480208861e-05
4.70740058373864e-06,3.01905065146439e-06,8.8539226357305e-06,1.65803738709335e-05
4.15847593294889e-06,3.53460826773958e-06,8.57876537455545e-06,1.62718495752439e-05
3.18501954517912e-06,3.01695705222166e-06,8.45900040238531e-06,1.46609769997861e-05
6.35766963414068e-06,5.79387930125626e-06,1.21459370996494e-05,2.42974860350463e-05
4.5364753112041e-06,3.22645283579859e-06,9.04344836836777e-06,1.68063765153705e-05
4.53756011213721e-06,3.05633424750857e-06,9.11960697654171e-06,1.67135013361875e-05
7.40540414282773e-06,5.88189844393382e-06,1.26478510328859e-05,2.59351536196474e-05
3.42865190780102e-06,2.99418333253728e-06,8.06966624222373e-06,1.4492501482562e-05
3.09551467617332e-06,2.49261817704916e-06,7.07768026924932e-06,1.26658131224718e-05
3.13614965152323e-06,2.64098360988415e-06,7.46164325301107e-06,1.32387765144184e-05
3.04775655089125e-06,2.52723575431348e-06,6.85464267680613e-06,1.24296349820109e-05
4.05952992657545e-06,3.89829782512898e-06,1.00369235916707e-05,1.79947513433752e-05
3.84568645671051e-06,3.74168525779202e-06,9.19510169091088e-06,1.67824734054134e-05
3.01341010584091e-06,2.64192012771238e-06,7.08337718600245e-06,1.27387074195557e-05
3.3727308672247e-06,2.58445520242286e-06,7.34969105479834e-06,1.33068771244459e-05
3.1575910592897e-06,2.6226432990736e-06,7.16565584270924e-06,1.29458902010725e-05
7.38173718124818e-06,4.51659163768674e-06,1.04758677262891e-05,2.2374196545224e-05
7.78955277801274e-06,8.71931895746895e-06,1.57402440834673e-05,3.2249115818949e-05
4.19634489609147e-06,2.70341884351984e-06,9.0991674536081e-06,1.59989311932194e-05
8.58559398260217e-06,6.11048410052656e-06,1.31870227672948e-05,2.78831008504235e-05
5.25676653280982e-06,3.42787710105447e-06,9.87430174749142e-06,1.85589453813557e-05
2.7986251046632e-06,2.42462056452867e-06,7.75730408560688e-06,1.29805497547987e-05
2.81894850458946e-06,2.47484675189983e-06,7.52713186848197e-06,1.28209271249713e-05
2.975346681822e-06,2.63043649003233e-06,8.0227202556343e-06,1.36285034274886e-05
3.248670348556e-06,2.80306780291585e-06,7.97356681550585e-06,1.40253049669777e-05
5.05074387825975e-06,5.24031375168155e-06,1.09426527365439e-05,2.12337103664852e-05
3.15934546400453e-06,2.79276807133414e-06,8.07181176818164e-06,1.40239253035203e-05
3.08273936187542e-06,2.64844447939058e-06,7.75103658739921e-06,1.34822204286652e-05
1.21134665144088e-05,1.22954953959361e-05,1.52174780724103e-05,3.96264399827553e-05
3.36723264073746e-06,2.80984575121186e-06,7.34787024807633e-06,1.35249486400257e-05
4.36371339444929e-06,3.46587705661663e-06,7.90879907666061e-06,1.57383895277265e-05
3.82052088157631e-06,3.1668262627582e-06,7.65509142296715e-06,1.46424385673017e-05
9.317076367994e-06,6.53432249228993e-06,1.12464547157883e-05,2.70978535760722e-05
8.53510400155147e-06,7.96590226089212e-06,1.52835624212046e-05,3.17845686836482e-05
5.91640174444083e-06,3.45553477482433e-06,1.16362309672377e-05,2.10081674865029e-05
5.34968886469794e-06,4.61210358806861e-06,1.01542729512021e-05,2.01160654039686e-05
6.94240031825489e-06,5.57296120884496e-06,1.17503699527106e-05,2.42657314798105e-05
3.98002404056537e-06,2.75241562026408e-06,8.2786020939003e-06,1.50110417547297e-05
3.96216135940927e-06,2.93046512816032e-06,8.14833291096051e-06,1.50409593985301e-05
9.64348671934138e-06,9.0149101871772e-06,1.15009219341842e-05,3.01593188407028e-05
1.29924494788428e-05,1.10156094076814e-05,1.65214798394188e-05,4.0529538725943e-05
5.88841280870824e-06,4.54621985920552e-06,9.9062705292589e-06,2.03409031971727e-05
8.00973575202971e-06,5.2623777882752e-06,1.10303870400081e-05,2.4302500580313e-05
6.6520955221827e-06,4.02530831630243e-06,1.03068545337036e-05,2.09842583721887e-05
4.06643416086141e-06,3.10562439232043e-06,9.34372545387411e-06,1.65157840070559e-05
4.17834724182816e-06,2.90780732973772e-06,9.05758860510357e-06,1.61437431766695e-05
5.65472582160458e-06,4.06928022095864e-06,1.07461353332214e-05,2.04701413757846e-05
4.99043214083034e-06,3.3807649815831e-06,9.52095939917996e-06,1.78921565215934e-05
6.52167319642553e-06,3.43481505473248e-06,1.01749478703573e-05,2.01314361215154e-05
4.64031078704514e-06,3.20416797825697e-06,9.51323508135872e-06,1.73577138466608e-05
5.58483828241637e-06,3.20555932375599e-06,9.99896475812305e-06,1.87893623642954e-05
1.31695403403504e-05,9.13981861720967e-06,1.8698886357972e-05,4.1008245315532e-05
2.60915774817468e-05,1.72720419953122e-05,2.6774925680041e-05,7.01385451571e-05
6.73976659137685e-06,5.8867070025706e-06,1.23410190813137e-05,2.49674926752611e-05
4.16246061237605e-06,3.2101437272889e-06,1.00472537207795e-05,1.74198580604445e-05
3.04740397120114e-06,2.72065475592772e-06,8.38161095636719e-06,1.4149669683496e-05
2.88398343030673e-06,2.61605063135777e-06,8.14824474036021e-06,1.36482788020247e-05
3.79139731573123e-06,3.09230581216389e-06,8.54242868167709e-06,1.54261318095722e-05
8.10295564425666e-06,4.66782006759057e-06,1.10509564501975e-05,2.38217321620447e-05
5.84742246176419e-06,3.69692368551958e-06,9.38428120585716e-06,1.89286273531409e-05
4.77524217229851e-06,3.13156909938048e-06,8.82825117949624e-06,1.67350624511752e-05
7.64094667621519e-06,5.25029921280723e-06,1.32433939038774e-05,2.61346397928999e-05
5.59716820885749e-05,2.68266033807848e-05,3.45949927731681e-05,0.000117393278242528
3.50906355781256e-06,3.82276765182269e-06,7.43047477606649e-06,1.47623059857017e-05
1.95323924746991e-05,1.68903557245878e-05,2.95355635986029e-05,6.59583117978898e-05
4.79325598753599e-06,3.81120706348242e-06,1.05068743238083e-05,1.91113373748267e-05
4.24093319841185e-06,2.99423408249317e-06,9.54602763492011e-06,1.67811949158251e-05
1.55567615746634e-05,1.32918350419254e-05,2.41452177888504e-05,5.29938144054392e-05
1.42127572040547e-05,8.62941514779425e-06,1.81893019796216e-05,4.10314743314705e-05
1.56678473677418e-05,9.50834137440604e-06,1.66795803736019e-05,4.18557691157497e-05
1.09324718139918e-05,1.22084412029579e-05,1.57178785366894e-05,3.8858791553639e-05
5.05105473000517e-06,5.34543335627588e-06,1.0964545887276e-05,2.1361033973557e-05
1.99077087102777e-05,1.47286453848118e-05,2.00493564268034e-05,5.46857105218929e-05
4.13681514012555e-05,2.86698892792688e-05,3.62133706810114e-05,0.000106251411361536
6.47081534284837e-06,5.25286321238811e-06,1.06763214989273e-05,2.24000000541638e-05
1.13760578561829e-05,6.39011705702121e-06,1.2331382217586e-05,3.00975571307901e-05
1.32321158997527e-05,8.6763897998243e-06,1.58676491862677e-05,3.77761548858448e-05
0.000101089775544063,3.71161827040339e-05,4.14013713760797e-05,0.000179607329624176
1.18873261787416e-05,9.13317334016355e-06,2.02748856901344e-05,4.12953852090396e-05
1.02549586584873e-05,7.00411273530055e-06,1.88431022613746e-05,3.61021736551624e-05
1.16370196464031e-05,6.62182076059313e-06,1.48226545980939e-05,3.30814950050901e-05
1.47613436997759e-05,1.3231014685701e-05,2.00167487639902e-05,4.8009107149467e-05
7.22004929526837e-06,4.87956090716164e-06,1.12028325336557e-05,2.33024427360857e-05
1.01200228889772e-05,1.14683193991569e-05,1.47542494489528e-05,3.63425917370869e-05
9.88053771463069e-06,6.65347456758206e-06,1.31793418888646e-05,2.97133541710774e-05
2.33906118032586e-05,1.11706051545342e-05,1.84108720599945e-05,5.29720890177873e-05
1.51949758386306e-05,9.15917353446195e-06,1.59297845426776e-05,4.02839339157701e-05
1.21764278738025e-05,1.15573547027301e-05,1.57694204874306e-05,3.95032030639631e-05
1.75345374810341e-05,1.32982950057121e-05,2.49357133659171e-05,5.57685458526633e-05
2.54151429191053e-05,1.87970357391906e-05,2.3822887362379e-05,6.8035066020675e-05
2.97479391458485e-05,1.34897294174353e-05,2.17735705133801e-05,6.5011239076664e-05
1.5305283776316e-05,9.90814067177241e-06,1.41955831256056e-05,3.9409007573694e-05
7.35013933326276e-06,7.31294016430235e-06,1.03028527289569e-05,2.4965932226522e-05
8.95296044040243e-06,6.82683892099614e-06,1.15172448441331e-05,2.72970442055316e-05
9.06561800414942e-06,7.09841781996084e-06,1.20726706393903e-05,2.82367064635006e-05
1.19748995724569e-05,1.27935055217419e-05,2.03263026205269e-05,4.50947077147257e-05
1.91593325043633e-05,9.35416145622684e-06,1.51578111936884e-05,4.36713051542786e-05
1.52943082334516e-05,8.00396184784996e-06,1.20343799829691e-05,3.53326500642707e-05
6.30545266949945e-05,4.56601025227089e-05,3.66966618834893e-05,0.000145411291101193
3.6903283015416e-05,2.41050564533059e-05,3.41894540945727e-05,9.51977935632946e-05
1.0669483726248e-05,8.3342594219043e-06,1.36744581130986e-05,3.26782012612509e-05
4.87365108922547e-06,3.82446594216144e-06,9.54290056136644e-06,1.82410175927534e-05
8.66537008352799e-06,6.3312351253529e-06,1.34938749009486e-05,2.84904801098295e-05
1.87562925759261e-05,1.40709649867557e-05,2.09270652392759e-05,5.37543228019578e-05
6.5751378433845e-06,6.32906848666628e-06,1.18037575254724e-05,2.47079638555231e-05
6.15067282821617e-06,5.32701136001164e-06,1.11061315413524e-05,2.25838157295802e-05
5.32380280488683e-06,4.88699021796124e-06,1.03323447237177e-05,2.05431377465658e-05
6.10501475301185e-06,5.17441151281538e-06,1.10669302744971e-05,2.23463565403243e-05
7.89951859631145e-06,7.65552187283833e-06,1.18230226818858e-05,2.73780631510355e-05
2.15071486311487e-05,1.42424907434122e-05,2.27260020799e-05,5.84756414544609e-05
3.83185590524521e-05,3.13893021518351e-05,8.77524477590038e-05,0.000157460308963291
1.39265524444988e-05,8.78825120786106e-06,1.40765954564292e-05,3.67913991087891e-05
8.41315585639732e-06,6.01092300116097e-06,1.38720134110625e-05,2.82960922686208e-05
5.69707336784883e-06,3.83577627610236e-06,1.11082461396683e-05,2.06410957836195e-05
6.92963397332005e-06,6.89544446895887e-06,1.49949775719378e-05,2.88200560142168e-05
3.94250376977044e-05,2.60689411800962e-05,2.93796852978164e-05,9.4873664175617e-05
2.2268175823121e-05,2.41273334146036e-05,2.61151726438585e-05,7.2510681881583e-05
2.09930240105092e-05,2.00172657018861e-05,1.95229961399975e-05,6.05332858523928e-05
2.06207302417944e-05,1.86357737513731e-05,1.93009439609864e-05,5.85574479541539e-05
2.35478331303489e-05,1.68585646532672e-05,1.58809941224735e-05,5.62873919060896e-05
2.80245355452269e-05,1.73931067350267e-05,2.11458755347295e-05,6.65635178149831e-05
3.44995559041967e-05,2.7606017615643e-05,6.74285999950224e-05,0.000129534173514862
2.15113183333367e-05,1.17984460403791e-05,1.30856163570301e-05,4.63953807307459e-05
2.00390581543074e-05,1.10357099825334e-05,1.52596306488556e-05,4.63343987856965e-05
1.67244241088185e-05,1.0540572755438e-05,1.23492567535053e-05,3.96142536177618e-05
3.65762169384122e-05,3.420488529241e-05,0.000113696462900008,0.00018447756513083
4.33545651111913e-05,2.61590212692561e-05,4.60473793559099e-05,0.000115560965736357
8.68478984414777e-06,6.48165142785938e-06,1.22834615234079e-05,2.74499027954151e-05
3.07660851971162e-06,2.86418402752747e-06,7.40054077098234e-06,1.33413333182214e-05
3.19643144630939e-06,2.85954291708657e-06,7.24794041595068e-06,1.33039147793466e-05
3.15082687001002e-06,2.9279811679631e-06,7.01799359506642e-06,1.30968016330395e-05
9.2090174034093e-06,8.29050941724711e-06,1.28447358239123e-05,3.03442626445687e-05
5.19120309498073e-06,5.80533585224983e-06,1.1835378408166e-05,2.28319173553966e-05
1.10007935520709e-05,1.37352907898888e-05,1.5419300830387e-05,4.01553851723466e-05
3.53552565471127e-06,2.84607165293279e-06,8.70540761835805e-06,1.50870049260021e-05
5.0740186052798e-06,5.36596497545501e-06,1.1185039092983e-05,2.16250226737178e-05
4.02307791563731e-06,3.08925943688424e-06,9.03209021538939e-06,1.61444275679109e-05
4.56720534021407e-06,5.64512406574803e-06,1.19148768183695e-05,2.21272062243316e-05
7.01725339425351e-06,9.04007329359514e-06,1.06496991641466e-05,2.67070258519952e-05
1.41366043588723e-05,1.13033426681571e-05,1.91134030916866e-05,4.4553350118716e-05
2.32010030249519e-05,1.8414765626111e-05,3.10009418489781e-05,7.26167105000409e-05
7.41638146476085e-06,5.38129286806336e-06,1.65016355984819e-05,2.92993099313061e-05
9.16107057103511e-06,7.68128957753797e-06,1.62057417052685e-05,3.30481018538415e-05
1.10312737165616e-05,9.93013568578475e-06,1.6003472132449e-05,3.69648815347953e-05
7.87205178464533e-06,4.83471088480886e-06,1.41006589485296e-05,2.68074216179838e-05
3.72255814389965e-06,3.4401847623388e-06,1.12184469293361e-05,1.83811898355746e-05
4.89548244776363e-06,4.54564531275739e-06,1.04596419863405e-05,1.99007697468615e-05
1.77385053812323e-05,1.94572530020542e-05,2.11312816726049e-05,5.83270400558915e-05
8.69214880999609e-06,6.07117722854874e-06,1.35412951532688e-05,2.83046211918136e-05
1.41893887444843e-05,7.46472825649141e-06,1.58304586966694e-05,3.74845756976452e-05
2.05368274990015e-05,1.12856872859456e-05,2.44185831778719e-05,5.6241097962819e-05
1.58559746340579e-05,9.90449384697081e-06,1.88058989270977e-05,4.45663674081264e-05
8.61991270833285e-06,6.15004664208862e-06,1.17433486053559e-05,2.65133079557774e-05
1.2192719775706e-05,6.57101856354626e-06,1.50477451925389e-05,3.38114835317912e-05
9.34396188274455e-06,6.26787107777976e-06,1.41942045073648e-05,2.98060374678891e-05
1.588000573887e-05,1.11485932778093e-05,1.91640269198168e-05,4.61926259364961e-05
1.31652797932109e-05,7.67169430013585e-06,1.45617997938232e-05,3.53987738871699e-05
7.21353858633109e-06,5.43706348457993e-06,1.11042517580356e-05,2.37548538289467e-05
1.68064270319644e-05,1.25565947612705e-05,1.60382451461092e-05,4.54012669393442e-05
3.07870403378213e-05,2.18548787523372e-05,2.29310490708882e-05,7.55729681610466e-05
1.56232326346593e-05,1.58337196116842e-05,2.65847407797395e-05,5.80416930260829e-05
1.94775146654067e-05,2.41297650469752e-05,3.23112085173571e-05,7.59184882297391e-05
1.88066568987373e-05,1.21287224784084e-05,1.7830793458449e-05,4.87661728355948e-05
1.03968921253016e-05,7.81513589884905e-06,1.54794937523749e-05,3.36915217765255e-05
1.12901756200085e-05,9.54568806518585e-06,1.49751700946848e-05,3.58110337798791e-05
1.31115593995819e-05,1.60531849206648e-05,2.32859047900122e-05,5.24506491102589e-05
1.08105043656094e-05,1.29058706917049e-05,2.18456443483851e-05,4.55620194056994e-05
3.54308737638592e-06,3.86276080175528e-06,9.0912982523149e-06,1.64971464304561e-05
5.71954738253565e-06,5.24268071993378e-06,1.08725869452318e-05,2.18348150477012e-05
3.55343047709843e-06,3.25230204038107e-06,8.1574030423701e-06,1.49631355598496e-05
4.21510492011231e-06,3.61036688321755e-06,9.34166348231058e-06,1.71671352856404e-05
7.26274069254105e-06,8.93141309924428e-06,1.30537711036901e-05,2.92479248954754e-05
5.64409213169468e-06,4.81185049328203e-06,1.04886238678165e-05,2.09445664927932e-05
5.20128373549863e-06,4.57158321966496e-06,1.00187130172535e-05,1.97915799724171e-05
2.28175477200817e-05,1.25980131370223e-05,1.87048026001705e-05,5.41203634572745e-05
9.9377309472183e-06,1.64390101623411e-05,2.09240546756919e-05,4.73007957852513e-05
8.26907925093292e-06,5.64916596032558e-06,1.17288557532946e-05,2.56471009645532e-05
4.43310034593032e-06,3.18472863405014e-06,9.2318092258297e-06,1.68496382058101e-05
4.65204100505935e-06,3.79529517519289e-06,9.35553290353489e-06,1.78028690837871e-05
4.47714341544333e-06,3.57388403627407e-06,9.96816914991459e-06,1.8019196601632e-05
8.21166521194463e-06,7.69963219225948e-06,1.32499213301524e-05,2.91612187343565e-05
1.17003233817326e-05,1.15287191453281e-05,1.75660903584483e-05,4.0795132885509e-05
1.40109964153129e-05,9.55287817135447e-06,1.86624408289345e-05,4.22263154156019e-05
5.87836787194244e-06,4.68985539190268e-06,1.35541118040208e-05,2.41223350678659e-05
1.38677515284463e-05,1.2527701107105e-05,2.50439139810085e-05,5.14393666165599e-05
1.21268862138658e-05,5.12729375880248e-06,1.04223129739617e-05,2.76764929466299e-05
6.85632160663578e-06,5.30078919305488e-06,1.15754137355838e-05,2.37325245352744e-05
6.84477898613798e-06,4.48773439594267e-06,1.05363672169185e-05,2.18688805989992e-05
6.00196665008576e-06,5.30880265108552e-06,1.18299081066061e-05,2.31406774077774e-05
4.70340903992209e-06,3.79801487648707e-06,1.00370655050778e-05,1.85384894214869e-05
9.59297528193903e-06,1.03100732401767e-05,1.19268166292598e-05,3.18298651513756e-05
5.69662366225996e-06,5.75793289177425e-06,1.05949069059441e-05,2.20494634599783e-05
4.41749920030001e-06,3.55460289300009e-06,8.89309012540859e-06,1.68651922187087e-05
5.25188851514716e-06,4.31657937450081e-06,9.78345596038794e-06,1.93519238500359e-05
4.46791237216661e-06,3.62519575283845e-06,9.8083398224992e-06,1.79014479475043e-05
1.14976767300791e-05,9.83763423726646e-06,1.98562144184474e-05,4.1191525385793e-05
4.70726122521766e-06,3.89094303354273e-06,9.89533875554583e-06,1.84935430143062e-05
6.13612701905189e-06,5.36857159420759e-06,1.07381234913183e-05,2.22428221045778e-05
6.22446544126887e-06,4.98153425299612e-06,1.05749252366644e-05,2.17809249309294e-05
6.69754156763808e-06,7.54881187925333e-06,1.19617659967279e-05,2.62081194436193e-05
7.79909034933197e-06,5.86572766958377e-06,1.15936004877411e-05,2.52584185066569e-05
1.13297324044946e-05,1.03664360855577e-05,1.36636408891474e-05,3.53598093791997e-05
5.33127284098419e-06,4.78654031798348e-06,1.01809748988962e-05,2.02987880578638e-05
4.78487309594349e-06,3.86413830894048e-06,9.11377639219342e-06,1.77627877970774e-05
4.55251201405464e-06,4.13691381110454e-06,8.8710603805742e-06,1.75604862057334e-05
2.08351616239229e-05,1.81516832049778e-05,2.80980860547444e-05,6.70849308836451e-05
5.98646493560962e-06,5.20876288935718e-06,1.20626080327004e-05,2.32578358576672e-05
4.81724913982384e-06,4.08081171158836e-06,1.01195415162454e-05,1.90176023676576e-05
8.44359422361904e-06,8.44613577885842e-06,1.50652098124488e-05,3.19549398149263e-05
6.39977922510949e-06,6.05570163324399e-06,1.32623279278736e-05,2.57178087862271e-05
7.58048179424715e-06,8.73538504513305e-06,1.28207311148651e-05,2.91365979542453e-05
4.31214784672949e-06,4.24658046233246e-06,9.81278846791101e-06,1.8371516776973e-05
8.16373945723631e-06,8.95575979286117e-06,1.25325298494896e-05,2.96520290995871e-05
5.93590290280087e-06,5.52585612367065e-06,1.07110389132772e-05,2.21727979397487e-05
7.89215968532804e-06,5.50351278730248e-06,1.11741394872989e-05,2.45698119599294e-05
4.50460999364255e-06,3.46515202195142e-06,9.39411608880166e-06,1.73638781043956e-05
5.45097665645192e-06,4.65397082690581e-06,1.18988420726154e-05,2.20037895559731e-05
1.84360817504442e-05,1.88019222106601e-05,1.85091506675158e-05,5.574715462862e-05
8.01774457038336e-06,5.30214105236867e-06,1.39594327184478e-05,2.72793183411998e-05
1.13886764790376e-05,1.19901180734843e-05,1.42494412293223e-05,3.76282357818442e-05
4.34316064114584e-06,3.48260832370588e-06,8.16330271420238e-06,1.59890716790541e-05
3.72031858445109e-06,3.30152783385374e-06,7.9012753563249e-06,1.49231217746297e-05
3.79236248642936e-06,3.72648067073502e-06,7.07478297487732e-06,1.45936261320417e-05
4.96650768447539e-06,4.33943070725894e-06,8.73042281415502e-06,1.80363612058894e-05
4.56584250460597e-06,3.77811573718302e-06,7.99321189055345e-06,1.63371701323424e-05
9.24505702761454e-06,9.9113645738729e-06,1.38847628934085e-05,3.3041184494896e-05
5.84777203880787e-06,4.66911816262589e-06,8.73418660886692e-06,1.92510768103007e-05
6.04591437064533e-06,5.00818993613369e-06,9.09341214603551e-06,2.01475164528145e-05
4.80159956616127e-06,3.44835186344981e-06,9.05392618203942e-06,1.73038776116505e-05
6.62167779203337e-06,4.26574590700752e-06,1.02870341075972e-05,2.11744578066381e-05
4.2529223216629e-06,3.18188001999937e-06,8.5382724733935e-06,1.59730748150558e-05
7.99605606980345e-06,5.3038082031364e-06,1.13812798970223e-05,2.46811441699622e-05
8.36297883622086e-06,6.30629625242813e-06,1.17535666706944e-05,2.64228417593434e-05
6.42886778886763e-06,5.30661558321312e-06,1.07687310982355e-05,2.25042144703162e-05
4.27355646992449e-06,3.52786121316978e-06,8.14105040722129e-06,1.59424680903156e-05
5.21138645839152e-06,5.45450674735239e-06,1.062843217499e-05,2.12943253807339e-05
8.17468693711635e-06,1.00969252426377e-05,1.06867783951973e-05,2.89583905749514e-05
5.46675871948571e-06,5.18641393177685e-06,9.91197295139465e-06,2.05651456026572e-05
4.61439145357315e-06,3.94876542313971e-06,9.72519639202179e-06,1.82883532687347e-05
4.4878847828228e-06,3.94644638414174e-06,8.97968370694578e-06,1.74140148739103e-05
5.4826885492871e-06,5.13806167262727e-06,1.11924579523551e-05,2.18132081742694e-05
1.14978144606493e-05,4.79265694745997e-06,1.17449214701423e-05,2.80353928782515e-05
1.38405052440567e-05,5.61807602541744e-06,1.27498433853291e-05,3.22084246548033e-05
5.00569091092668e-06,3.67153217326936e-06,9.23417824346887e-06,1.79114013276649e-05
5.05998592992326e-06,3.77432855146563e-06,9.44778010283344e-06,1.82820945842223e-05
5.9660363451464e-06,3.45289568704979e-06,9.1424736392738e-06,1.856140567147e-05
7.28293181326065e-06,4.12375969900408e-06,1.0681106323615e-05,2.20877978358797e-05
4.59177071117546e-06,3.18045674363007e-06,8.33573796776718e-06,1.61079654225727e-05
4.87049950304376e-06,6.14040478224118e-06,1.00312640810524e-05,2.10421683663373e-05
7.50880589884999e-06,3.98527678662744e-06,9.50783022857853e-06,2.1001912914056e-05
1.5092030658748e-05,1.10837055385749e-05,1.81827868573407e-05,4.43585230546635e-05
3.81442028736436e-06,2.81479827500545e-06,8.46106244714791e-06,1.50902810095177e-05
8.10436701232861e-06,8.99240445332436e-06,1.28655599998485e-05,2.99623314655015e-05
1.1781533961538e-05,8.56940915627655e-06,1.64728651453531e-05,3.68238082631677e-05
6.97378327616612e-06,4.84060553246863e-06,1.0024894534595e-05,2.18392833432298e-05
3.39607642793829e-06,2.75522883378765e-06,7.29538904280608e-06,1.3446694304532e-05
3.28052081957658e-06,2.61264726247704e-06,6.90566968692544e-06,1.27988377689791e-05
4.89298524387438e-06,3.32209578044912e-06,7.70134080498477e-06,1.59164218293083e-05
5.63182394387971e-06,4.65838158919202e-06,1.01389106067182e-05,2.04291161397899e-05
4.05412254558694e-06,3.55221365311628e-06,8.38250701298587e-06,1.59888432116891e-05
5.47710962214225e-06,3.86409561546956e-06,8.55541709877727e-06,1.78966223363891e-05
4.53222968601392e-06,3.29672116170578e-06,8.03821504115966e-06,1.58671658888794e-05
4.36234971041469e-06,3.45959957748363e-06,8.65772063524395e-06,1.64796699231423e-05
1.17081134426513e-05,9.16754941847132e-06,1.44368249121439e-05,3.53124877732665e-05
7.30867729262171e-06,6.37756765442777e-06,1.32847056292301e-05,2.69709505762795e-05
4.44916918804375e-06,3.45346180415921e-06,8.64266185840244e-06,1.65452928506054e-05
7.64986393414474e-06,6.31999911386104e-06,1.24964839249031e-05,2.64663469729089e-05
3.52535348886201e-06,3.10088775752239e-06,7.45778428875477e-06,1.40840255351392e-05
3.34069832423033e-06,2.76342223161414e-06,7.26968326342112e-06,1.33738038192656e-05
3.35754354894569e-06,2.83109883719383e-06,7.14316788648612e-06,1.33318102726256e-05
3.4677342476829e-06,2.94699848865628e-06,7.06469987147562e-06,1.34794326078148e-05
9.17134878976217e-06,9.12080651616257e-06,1.44685524318166e-05,3.27607077377414e-05
3.37952341639377e-06,2.9789741746474e-06,7.64414778080331e-06,1.40026453718445e-05
3.9762448438571e-06,3.07158861104422e-06,7.47574475447859e-06,1.45235782093799e-05
3.33465225030397e-06,2.82643147898331e-06,6.9527279159525e-06,1.31138116452398e-05
4.29606107900666e-06,4.52855259319873e-06,8.44174565922901e-06,1.72663593314344e-05
7.18314108584134e-06,6.6766583694876e-06,1.12692914556252e-05,2.51290909109541e-05
3.42101180067194e-06,2.90226112122424e-06,8.04554137991907e-06,1.43688143018153e-05
3.71721781266647e-06,3.32832464404985e-06,8.45038280539709e-06,1.54959252621134e-05
3.2097842407768e-06,2.91324707339329e-06,8.2438992646682e-06,1.43669305788383e-05
5.5986143661833e-06,3.76001603878478e-06,9.1035027562674e-06,1.84621331612355e-05
3.82408726384157e-06,3.01998094403231e-06,7.96100185571932e-06,1.48050700635932e-05
5.84396841978289e-06,3.58829122826276e-06,9.91693980033281e-06,1.93491994483785e-05
3.56887737114845e-06,3.25828483909578e-06,8.62787685809698e-06,1.54550390683412e-05
3.51880273903032e-06,2.9040596042838e-06,8.54375998249181e-06,1.49666223258059e-05
1.41802238346893e-05,9.68145795062756e-06,1.79134911019386e-05,4.17751728872554e-05
1.0385137582946e-05,5.30046941242837e-06,1.30496938667615e-05,2.87353008621358e-05
5.5977258912634e-06,3.54585983537453e-06,9.25126797277851e-06,1.83948536994164e-05
4.77626811730305e-06,3.47059881282311e-06,9.1668549608505e-06,1.74137218909767e-05
3.84370165342451e-06,3.15730888586616e-06,8.87133788361039e-06,1.58723484229011e-05
3.71958681941732e-06,3.15119849473739e-06,8.8435743514836e-06,1.57143596656383e-05
4.6433327651956e-06,3.38973290052999e-06,9.70265005441894e-06,1.77357157201445e-05
1.08008717539765e-05,9.54837312073898e-06,1.66934656183779e-05,3.70427104930934e-05
3.38387592608431e-06,2.91049136875161e-06,7.31126272462826e-06,1.36056300194642e-05
4.95682287482034e-06,3.45366482990076e-06,8.77742257279841e-06,1.71879102775195e-05
4.8889103762458e-06,5.29138128080321e-06,9.31990761547828e-06,1.95001992725273e-05
6.65075636740579e-06,4.67353707544484e-06,1.06249035815157e-05,2.19491970243664e-05
6.49129191050237e-06,4.73870799409744e-06,1.01957938871907e-05,2.14257937917905e-05
4.57604971276499e-06,3.41879821521635e-06,8.06945932660294e-06,1.60643072545843e-05
4.77079483208891e-06,3.53573665333524e-06,8.74067392091307e-06,1.70472054063372e-05
5.93616721424125e-06,5.43220217275513e-06,9.93951346717454e-06,2.13078828541709e-05
4.33227725071446e-06,3.23373044684968e-06,9.24472242770279e-06,1.68107301252669e-05
5.08486656028211e-06,3.92477477391816e-06,1.01006660192918e-05,1.91103073534921e-05
6.34591098464531e-06,4.38348487473822e-06,1.07798488112137e-05,2.15092446705972e-05
9.86457126290321e-06,1.36107918658122e-05,3.2534751571959e-05,5.60101147006745e-05
2.13394054718705e-05,2.88776691616679e-05,3.45573234703769e-05,8.47743981039153e-05
1.84961316091093e-05,2.16260253308325e-05,2.49016024844702e-05,6.5023759424412e-05
1.32805176030614e-05,1.39293163065523e-05,2.05091693186214e-05,4.77190032282351e-05
1.83216491455506e-05,1.79256773377288e-05,2.21973498009727e-05,5.84446762842521e-05
4.99912979762297e-06,4.2011874238548e-06,9.26215474326962e-06,1.84624719647474e-05
6.12258783231468e-06,4.19450530759081e-06,9.33305037504776e-06,1.96501435149533e-05
3.82170194960469e-06,3.22249425295174e-06,8.41927281131384e-06,1.54634690138703e-05
4.00918183467516e-06,3.47709557020043e-06,8.48642631981391e-06,1.59727037246895e-05
3.80022147957885e-06,3.53620675093248e-06,8.31503906261637e-06,1.56514672931277e-05
5.96825865049349e-06,4.67877821275022e-06,1.00745707863007e-05,2.07216076495444e-05
4.48175425087483e-06,3.53458862823495e-06,9.23165669800791e-06,1.72479995771177e-05
4.45886815083107e-06,3.37368767835238e-06,9.34119618909487e-06,1.71737520182783e-05
3.8637204051813e-06,3.63900132796853e-06,9.03156848292716e-06,1.6534290216077e-05
3.51098589467569e-06,3.32696669894582e-06,7.90206151940244e-06,1.4740014113024e-05
3.38575920309102e-06,3.39429127650469e-06,8.54702246537267e-06,1.53270729449684e-05
3.19026277942304e-06,3.22324351395078e-06,7.74705969445637e-06,1.41605659878302e-05
3.29595784550749e-06,3.3217349009163e-06,8.14197168776513e-06,1.47596644341889e-05
3.62933972285217e-06,3.18560097930708e-06,8.3097232587166e-06,1.51246639608759e-05
3.36965559593256e-06,3.39149648079509e-06,7.96926106806011e-06,1.47304131447878e-05
3.91181507209511e-06,3.47026084691223e-06,9.03927059223212e-06,1.64213465112395e-05
1.18569551993399e-05,1.56668779929409e-05,1.6260232963305e-05,4.37840661555859e-05
1.06281912773299e-05,8.26290177499268e-06,1.42406206627381e-05,3.31317137150607e-05
5.78532190401867e-06,6.62005736744214e-06,1.05557540500315e-05,2.29611333214923e-05
5.22839117984883e-06,4.27749127264759e-06,9.67873755528956e-06,1.9184620007786e-05
4.78483861202454e-06,6.4199886868544e-06,1.02646709549039e-05,2.14694982537829e-05
4.64795647173906e-06,3.61479831664761e-06,9.44317291349728e-06,1.7705927701884e-05
4.67391181511168e-06,3.39961000783273e-06,8.07306605461503e-06,1.61465878775594e-05
4.47929053286496e-06,3.33561007897478e-06,8.01784608547119e-06,1.58327466973109e-05
5.55965738687837e-06,3.63714179831931e-06,8.76397509806629e-06,1.7960774283264e-05
2.28291873395832e-05,1.46772485818325e-05,1.98399607353606e-05,5.73463966567763e-05
2.14422692647792e-05,1.41690501617856e-05,2.20908496406833e-05,5.77021690672482e-05
9.16275190687976e-06,7.77712133844224e-06,1.43732823214044e-05,3.13131555667264e-05
4.51570573241898e-06,3.49935971611164e-06,8.85997177170948e-06,1.68750372202401e-05
6.30442464410025e-06,4.42333341096956e-06,9.6056563836233e-06,2.03334144386931e-05
5.82394831736869e-06,3.48467467048698e-06,9.8925138494557e-06,1.92011368373114e-05
5.19967042937457e-06,5.57402284986403e-06,1.1037223937737e-05,2.18109172169756e-05
4.69016786712838e-06,4.11116094855389e-06,9.42386952481515e-06,1.82251983404974e-05
5.96355854135686e-06,4.75134360776606e-06,9.76014921536962e-06,2.04750513644925e-05
5.19603121254842e-06,3.66214895189976e-06,8.8041149573638e-06,1.7662295121812e-05
3.38806713376625e-06,3.08930233078703e-06,7.35993128402691e-06,1.38373007485802e-05
5.87712011761838e-06,6.96977902669154e-06,1.19513360056669e-05,2.47982351499768e-05
3.48332558496181e-06,3.04299263297322e-06,7.86133846814553e-06,1.43876566860806e-05
5.51075378773547e-06,4.51160697873338e-06,9.74405739169061e-06,1.97664181581595e-05
8.22424209357258e-06,7.42403838652262e-06,1.24546379296907e-05,2.81029184097859e-05
5.49610693449427e-06,5.86453628549417e-06,9.28488643314226e-06,2.06455296531307e-05
5.5075124492046e-06,4.14006969329101e-06,8.46865021033234e-06,1.8116232352828e-05
6.58021716640626e-06,4.79064337703671e-06,9.43148775351893e-06,2.08023482969619e-05
7.9675830115649e-06,5.27769127350911e-06,1.04453875227945e-05,2.36906618078685e-05
6.94011346332649e-06,5.12752018725991e-06,1.16733798114442e-05,2.37410134620306e-05
9.11607740717128e-06,6.07271920402298e-06,1.07039182983488e-05,2.58927149095431e-05
7.24633190941514e-06,5.41572072039004e-06,1.03338047288824e-05,2.29958573586876e-05
5.71827071352224e-06,5.9518204430153e-06,9.31723573983027e-06,2.09873268963678e-05
4.64824801680074e-06,3.51790176502813e-06,9.16857242523431e-06,1.73347222070632e-05
6.28061703158174e-06,4.40646681477337e-06,9.48222813068167e-06,2.01693119770368e-05
1.30755477097382e-05,5.46098966397044e-06,1.07681488587549e-05,2.93046862324635e-05
5.1438341544249e-06,6.55497027912793e-06,9.31129577304199e-06,2.10101002065948e-05
8.60443837070293e-06,6.96982389376668e-06,1.19806164246101e-05,2.75548786890798e-05
1.30204421723158e-05,1.13735259691172e-05,2.10651950411215e-05,4.54591631825545e-05
4.23283695933726e-06,3.54655536774291e-06,8.06475006600317e-06,1.58441423930833e-05
5.05033911061905e-06,4.23032898324078e-06,9.01048193635255e-06,1.82911500302124e-05
4.26354258343443e-06,3.12314019931902e-06,8.04712972513629e-06,1.54338125078897e-05
2.86297271528418e-05,4.71936023460751e-05,2.48841117514537e-05,0.000100707441250371
1.3144361813801e-05,1.17188505938624e-05,1.71868449803392e-05,4.20500573880026e-05
9.41859171820295e-06,8.16684399351288e-06,1.32486444449566e-05,3.08340801566724e-05
9.92881593259536e-06,1.091767083263e-05,1.32475371482598e-05,3.40940239134852e-05
7.73570749298917e-06,5.86030169571658e-06,1.04233383292442e-05,2.40193475179499e-05
7.95204273610398e-06,6.91103269784504e-06,1.14159127872408e-05,2.62789882211898e-05
6.02410628067673e-06,4.78920598206191e-06,8.94575885445356e-06,1.97590711171922e-05
5.11368474281381e-06,4.45636291015444e-06,9.33987093443101e-06,1.89099185873993e-05
3.90408900051346e-06,3.50711619309604e-06,8.25510466229111e-06,1.56663098559006e-05
3.71376533368801e-06,3.20867605736906e-06,8.18482236228018e-06,1.51072637533372e-05
3.03362093489918e-06,2.50583016099552e-06,7.32248665933801e-06,1.28619377552327e-05
4.16030101462125e-06,3.51402822420904e-06,8.4314984880611e-06,1.61058277268914e-05
4.19412850749969e-06,3.6699739542111e-06,8.57790491675434e-06,1.64420073784651e-05
1.22200099096477e-05,1.27470529578276e-05,1.8102434318131e-05,4.30694971856063e-05
8.488911509977e-06,1.0050439541794e-05,1.58738508378529e-05,3.44132018896239e-05
5.72164259024151e-06,3.88820288319302e-06,8.90805909726851e-06,1.8517904570703e-05
4.00713403532396e-06,3.5118034999585e-06,8.09127212628804e-06,1.56102096615705e-05
3.05937628085819e-06,2.71607788540367e-06,7.01853116564797e-06,1.27939853319098e-05
5.10270541153369e-06,3.78341797352273e-06,8.67621472870652e-06,1.75623381137629e-05
3.7417521921869e-06,2.88682601548359e-06,7.97265817327888e-06,1.46012363809494e-05
4.87417163615155e-06,3.76160709629737e-06,8.38659840540974e-06,1.70223771378587e-05
4.89637114450144e-06,3.8705951204542e-06,9.20393945548494e-06,1.79709057204406e-05
4.52790631420377e-06,3.61008080022048e-06,9.06397263358798e-06,1.72019597480122e-05
4.78694814110417e-06,3.72485367783595e-06,9.81108663048417e-06,1.83228884494243e-05
4.55648172762913e-06,3.57433195797455e-06,9.00217207965645e-06,1.71329857652601e-05
6.3927333027774e-05,4.1637246231387e-05,4.46360014231237e-05,0.000150200580682285
5.8423904923727e-06,5.1944487912851e-06,1.26694184949574e-05,2.37062577786152e-05
5.09255217529653e-06,3.34471733915146e-06,9.05641255105241e-06,1.74936820655004e-05
5.46936679637879e-06,3.0058143135121e-06,9.49558470379118e-06,1.79707658136821e-05
4.28435548093683e-06,3.04367376006271e-06,8.85537754857267e-06,1.61834067895722e-05
5.08078544939799e-06,3.19871830264786e-06,9.50482694351409e-06,1.77843306955599e-05
8.63122469697685e-06,4.72714453190774e-06,1.07485832047695e-05,2.41069524336541e-05
6.26403589902449e-06,5.73408414100457e-06,9.14901828888712e-06,2.11471383289162e-05
4.46204376857008e-06,3.23431359073156e-06,8.21194436141537e-06,1.5908301720717e-05
4.81662662580532e-06,3.12256956263986e-06,8.54895167914339e-06,1.64881478675886e-05
4.56358432620241e-06,3.27612792208202e-06,9.02091915760428e-06,1.68606314058887e-05
5.64273853651945e-06,3.34506231109013e-06,9.0045160514157e-06,1.79923168990253e-05
4.87873445180177e-06,3.4579458189757e-06,8.54213932670665e-06,1.68788195974841e-05
4.51688007789945e-06,3.29328496258764e-06,9.05318341577306e-06,1.68633484562602e-05
4.31572196226797e-06,2.84737826763505e-06,8.49741469329947e-06,1.56605149232025e-05
3.9164565934176e-06,3.01396373929509e-06,8.3444480102899e-06,1.52748683430026e-05
1.23119687183317e-05,1.0582498018069e-05,1.49256597003648e-05,3.78201264367656e-05
9.44577040112355e-06,6.65194608414751e-06,1.21650628327491e-05,2.82627793180201e-05
7.11650027942296e-06,6.56359599283637e-06,1.34751753664436e-05,2.71552716387029e-05
4.41696860188885e-06,3.47889710952888e-06,1.03770679700455e-05,1.82729336814633e-05
6.35401610086195e-06,4.45792235281777e-06,1.01285965032588e-05,2.09405349569386e-05
6.79984400292507e-06,4.30070927873884e-06,9.43336718445651e-06,2.05339204661204e-05
4.90690634814527e-06,3.82059314023847e-06,9.30751820479243e-06,1.80350176931762e-05
4.85441137336362e-06,3.45015587940693e-06,8.73911410909995e-06,1.70436813618705e-05
5.92908527319907e-06,7.82188555089277e-06,1.02194355156609e-05,2.39704063397528e-05
4.65439289690921e-06,3.78534711781565e-06,9.01184123831147e-06,1.74515812530363e-05
1.1332033303747e-05,1.0797439935289e-05,1.56818316672656e-05,3.78113049063017e-05
5.79461496669602e-06,6.21421873604026e-06,9.38951960815951e-06,2.13983533108958e-05
6.75172613034371e-06,7.30224645018007e-06,1.12104918511128e-05,2.52644644316366e-05
6.42864471890188e-06,6.53766960598878e-06,1.17660933109171e-05,2.47324076358078e-05
5.38818157559712e-06,4.15044779459194e-06,9.88280176948885e-06,1.94214311396779e-05
4.18019854358466e-06,3.35307366129995e-06,9.22148829852183e-06,1.67547605034065e-05
4.85285918509088e-06,3.55954717216452e-06,9.27476812981137e-06,1.76871744870668e-05
5.36586163988378e-06,3.95427434758009e-06,1.05685887209007e-05,1.98887247083645e-05
1.76518278020796e-05,1.59846875695897e-05,1.75106267968793e-05,5.11471421685486e-05
6.26110281963463e-06,5.88160249623868e-06,1.00573917714461e-05,2.22000970873194e-05
4.37885667306681e-06,3.33348631677159e-06,7.45911145978976e-06,1.51714544496282e-05
6.82451330855403e-06,4.60304095641745e-06,9.26774188185894e-06,2.06952961468304e-05
9.00353374990672e-06,1.04202922805159e-05,1.34515564690426e-05,3.28753824994652e-05
8.59079990207903e-06,7.93082906928276e-06,1.14025812432988e-05,2.79242102146606e-05
5.85832438454705e-06,4.7470180347442e-06,1.08801612759204e-05,2.14855036952116e-05
7.19479975151354e-06,5.1580107652347e-06,1.12645338817362e-05,2.36173443984845e-05
4.46408167433912e-06,3.8954013189649e-06,1.04538050355375e-05,1.88132880288415e-05
5.09400427630548e-06,4.81498573812718e-06,1.06390678640244e-05,2.0548057878457e-05
8.41487395821714e-06,8.06519321832724e-06,1.36509988304878e-05,3.01310660070322e-05
5.68924614285146e-06,5.63364702690375e-06,1.11446542459957e-05,2.24675474157509e-05
4.30344992812154e-06,3.92033771610006e-06,7.78687645579198e-06,1.60106641000136e-05
6.18104808076243e-06,6.13624763372473e-06,1.02711832687585e-05,2.25884789832457e-05
1.03501932434342e-05,1.22542844881558e-05,1.56261102474837e-05,3.82305879790737e-05
4.71905135161637e-06,6.97388971535024e-06,1.04380267938043e-05,2.21309678607709e-05
1.04438895428952e-05,1.27338980906269e-05,1.31208591083908e-05,3.62986467419129e-05
5.92907876026056e-06,3.88744740321491e-06,9.30423534232586e-06,1.91207615058013e-05
8.38499728722151e-06,5.63451997742482e-06,1.31473058267373e-05,2.71668230913836e-05
2.3485113071364e-05,1.86522365102462e-05,2.5846778072875e-05,6.79841276544852e-05
9.400936571887e-06,7.71917857925038e-06,1.26677165064271e-05,2.97878316575644e-05
3.23751585261873e-05,1.51790365290092e-05,2.54148040578334e-05,7.29689991130299e-05
2.20579922075816e-05,2.47724590242466e-05,2.29968634597159e-05,6.98273146915442e-05
5.59889996996914e-06,4.10679439581366e-06,1.04478598743396e-05,2.01535542401224e-05
5.3559761333351e-06,4.94857576496755e-06,1.12307477560774e-05,2.153529965438e-05
7.26540393108758e-06,6.3300526935361e-06,1.20340577888106e-05,2.56295144134343e-05
2.75346239411039e-05,2.05368275923045e-05,2.20378071463662e-05,7.01092586797745e-05
8.84234573416276e-06,3.95001682877491e-06,1.14927728033515e-05,2.42851353662892e-05
1.88151303582195e-05,1.17080986538247e-05,1.94748609427458e-05,4.999808995479e-05
1.50134266960349e-05,8.15481821426723e-06,1.6091166156475e-05,3.92594110667771e-05
1.16144414465825e-05,6.05176141263736e-06,1.32116836377503e-05,3.08778864969702e-05
9.74226450825074e-06,7.85493112200132e-06,1.51188221542733e-05,3.27160177845254e-05
6.56013897146607e-06,5.96160456585881e-06,1.31516264038093e-05,2.56733699411342e-05
7.19199331254997e-06,4.5835879859273e-06,1.05481674082239e-05,2.23237487067011e-05
3.39621345654711e-06,2.79738331994356e-06,7.54724388724636e-06,1.3740840663737e-05
4.1229292634926e-06,3.84745602184355e-06,8.9212872015007e-06,1.68916724868369e-05
1.1494824598407e-05,1.25394742606424e-05,1.80645324451071e-05,4.20988313041565e-05
2.4997095198659e-05,1.1940688627461e-05,1.8150906644116e-05,5.5088690470236e-05
2.07176182613607e-05,1.52965856769046e-05,2.15885220316719e-05,5.76027259699372e-05
5.73120200569829e-06,4.47003677989152e-06,9.4819830264414e-06,1.96832218120312e-05
5.1524636037384e-06,3.28644289366752e-06,9.29795395521471e-06,1.77368604526206e-05
4.39347081676316e-06,3.16697382365731e-06,9.00500057763526e-06,1.65654452180557e-05
7.51251786527145e-05,5.95481525741136e-05,5.34054205386155e-05,0.000188078751765444
1.16088450834791e-05,1.19047866934089e-05,1.50874238296246e-05,3.86010556065126e-05
5.55374592433344e-06,6.75475514205137e-06,1.45807773684148e-05,2.68892784347996e-05
8.48533278615803e-06,5.92356092090864e-06,1.3827681627747e-05,2.82365753348137e-05
1.94801952372134e-05,1.25156978920415e-05,1.89568324076043e-05,5.09527255368593e-05
1.31259700465927e-05,1.06284047341122e-05,1.35591406318541e-05,3.73135154125591e-05
6.57328177598486e-06,6.53927543017753e-06,1.01513167687886e-05,2.3263873974951e-05
4.50449265956509e-06,5.29931459623664e-06,9.12920751917323e-06,1.8933014774975e-05
3.52694928809621e-06,6.58732777367948e-06,8.8322123718078e-06,1.89464894335835e-05
3.94592000921281e-06,7.36058897505801e-06,9.39289238396887e-06,2.06994013682397e-05
1.94327221176851e-05,2.77823518098353e-05,3.20860619370069e-05,7.93011358645274e-05
9.44369261269924e-06,1.29942522750874e-05,1.33041644286415e-05,3.57421093164282e-05
1.29779594278322e-05,1.19258520191396e-05,1.27272688847651e-05,3.7631080331737e-05
7.69380688399881e-06,7.64604813763154e-06,1.0696323029071e-05,2.60361780507014e-05
3.02082951359074e-06,2.59030031968479e-06,6.93018364212365e-06,1.25413134753992e-05
2.88777507933117e-06,2.66249289712393e-06,7.19250231016948e-06,1.27427702866246e-05
3.53793837469232e-06,3.16877286298547e-06,7.56084989077922e-06,1.4267561128457e-05
4.6585781866665e-06,3.2776016735812e-06,7.93110950603381e-06,1.58672893662815e-05
4.35192738383834e-06,3.06331126953042e-06,7.98035660843871e-06,1.53955952618075e-05
9.02650784718369e-06,1.2284550103459e-05,1.60929840574952e-05,3.74040420081378e-05
5.71476525061676e-06,5.57301333108815e-06,1.08477859284776e-05,2.21355645101825e-05
5.99708045346776e-06,4.53529745720608e-06,9.89632046751026e-06,2.04286983781841e-05
4.35563734253759e-06,3.26097372592778e-06,8.20707067477828e-06,1.58236817432436e-05
0.000126397338340828,4.2736281993361e-05,3.74574735457695e-05,0.000206591093879959
8.65621434195264e-06,8.22230792079308e-06,1.77073365634675e-05,3.45858588262132e-05
1.53876650933254e-05,1.31545040048275e-05,1.49878233337763e-05,4.35299924319292e-05
6.768480101059e-06,4.19160250625562e-06,1.09889478878257e-05,2.19490304951403e-05
7.03776731722034e-06,8.15869986621095e-06,1.62658016997695e-05,3.14622688832008e-05
5.57025573030987e-06,3.65681497155341e-06,9.76298032541594e-06,1.89900510272792e-05
6.53022499586403e-06,5.79362722638294e-06,1.13428905837173e-05,2.36667428059643e-05
5.20734852774362e-06,3.63728910207885e-06,8.94557268567075e-06,1.77902103154932e-05
1.07326217840239e-05,6.32711966379823e-06,1.22370242205558e-05,2.92967656683778e-05
1.03194345853514e-05,9.15896716781962e-06,1.59926726537414e-05,3.54710744069124e-05
6.56520893428136e-06,4.28242742892531e-06,9.2325978630265e-06,2.00802342262332e-05
3.97991956422644e-06,3.06866030743003e-06,8.08911677413193e-06,1.51376966457884e-05
3.27581742464316e-06,2.71156579070864e-06,7.8419298835783e-06,1.38293130989301e-05
4.55716585464145e-06,3.04458210151575e-06,7.98434802404977e-06,1.5586095980207e-05
4.68508503393358e-06,3.28177679588405e-06,8.19229673960238e-06,1.615915856942e-05
3.28529382716428e-06,2.83154030171081e-06,7.79092848538895e-06,1.3907762614264e-05
1.0186983463295e-05,7.61435961111785e-06,1.39548667781564e-05,3.17562098525692e-05
5.93417902628112e-06,4.80891078875617e-06,8.82231501165076e-06,1.95654048266881e-05
3.15969197456168e-06,2.80459616591434e-06,7.09209832759745e-06,1.30563864680735e-05
3.14126001483342e-06,2.89766724992453e-06,7.10724568168379e-06,1.31461729464417e-05
4.53137100722345e-06,3.89499314158542e-06,8.23554238447326e-06,1.66619065332821e-05
3.57143313315522e-06,2.75011278959196e-06,7.53675114193436e-06,1.38582970646815e-05
3.64736030231657e-06,2.79303749640869e-06,7.85935038398554e-06,1.42997481827108e-05
4.79035851805661e-06,5.48053265700613e-06,8.66083760135957e-06,1.89317287764223e-05
3.50063362962967e-06,3.67725242968917e-06,7.93633867242759e-06,1.51142247317464e-05
5.77305030879152e-06,4.15475222787335e-06,8.91769812617424e-06,1.88455006628391e-05
6.10150718921109e-06,5.92805780950302e-06,1.07393684468937e-05,2.27689334456078e-05
4.48108402727233e-06,3.61572750921236e-06,8.09352074797528e-06,1.619033228446e-05
9.85168562819333e-06,9.23360977790831e-06,1.21986131329275e-05,3.12839085390291e-05
1.97524174217191e-05,1.88516803633288e-05,2.03976462335602e-05,5.90017440186081e-05
4.11790795689516e-05,5.45592582870988e-05,4.40894002645779e-05,0.000139827738120628
1.91249980620325e-05,4.05654479200178e-05,7.37480164993278e-05,0.000133438462481378
3.30752580610585e-06,3.36906640189571e-06,7.05425196633456e-06,1.37308441743361e-05
5.69187912614397e-06,4.8948444554272e-06,7.40674397246539e-06,1.79934675540366e-05
6.51591288426083e-06,4.28772481877899e-06,7.79021319482906e-06,1.85938508978689e-05
4.78946059730495e-06,3.8199235992662e-06,7.58381023285886e-06,1.619319442943e-05
4.92891939355218e-06,4.06569289692697e-06,8.13175150791354e-06,1.71263637983927e-05
3.18065617958942e-06,2.72240993035495e-06,7.32281115723361e-06,1.3225877267178e-05
4.9179863340278e-06,3.79132519345788e-06,7.6219118560443e-06,1.633122338353e-05
5.17263628140107e-06,4.07845831129136e-06,7.86728658663015e-06,1.71183811793226e-05
3.67249550545668e-06,3.8972911309898e-06,7.30200876325421e-06,1.48717953997007e-05
5.0895077978644e-06,4.20516353745398e-06,8.65705889132129e-06,1.79517302266397e-05
3.85996194803868e-06,3.16982225410279e-06,7.64740852423744e-06,1.46771927263789e-05
1.71959600976244e-05,1.27362422041961e-05,1.71386108574728e-05,4.70708131592934e-05
6.96524204656767e-06,7.5343325883676e-06,9.59085563452883e-06,2.40904302694641e-05
4.84658195019299e-06,4.81856742628783e-06,8.68488898824042e-06,1.83500383647212e-05
4.34144544417123e-06,4.61467380123794e-06,7.85186267361215e-06,1.68079819190213e-05
1.12280040318817e-05,1.01579843877331e-05,1.66025958781566e-05,3.79885842977714e-05
1.02839495003735e-05,7.09653259038333e-06,1.22575710187378e-05,2.96380531094946e-05
5.20566643747401e-06,5.44726614246897e-06,9.99214601939156e-06,2.06450785993345e-05
5.10486071049116e-06,4.35017449557246e-06,8.69935928567436e-06,1.8154394491738e-05
4.82707016102093e-06,4.43797883760231e-06,8.02638045626052e-06,1.72914294548838e-05
6.80577403602838e-06,7.43361878436399e-06,1.04370972385816e-05,2.46764900589739e-05
1.24056733104768e-05,9.34528886793478e-06,1.35091848949545e-05,3.52601470733661e-05
2.49246818779666e-05,1.67543135575558e-05,2.18648036026257e-05,6.35437990381481e-05
5.09293277050598e-06,5.27317243764267e-06,1.17661818735117e-05,2.21322870816604e-05
2.47687846456222e-05,1.53179951648051e-05,3.75241320811141e-05,7.76109118915414e-05
1.09928513386131e-05,1.10643418464698e-05,2.13652254570678e-05,4.34224186421508e-05
2.2074274818948e-05,1.77726682528971e-05,2.17813337278443e-05,6.16282767996894e-05
6.52917774746554e-06,8.85484235881782e-06,1.4103673353371e-05,2.94876934596544e-05
1.22995103571576e-05,6.85485567462477e-06,1.5333160337793e-05,3.44875263695754e-05
6.63922308443447e-06,9.19895343943156e-06,1.24393499524813e-05,2.82775264763473e-05
4.59260515220582e-06,3.27501802665585e-06,8.6212012931069e-06,1.64888244719686e-05
5.11629752444509e-06,3.99443164166612e-06,9.17105066330122e-06,1.82817798294124e-05
6.1323226147349e-06,5.02818598826352e-06,1.08280958144771e-05,2.19886044174755e-05
7.92590950849124e-06,5.74332577667345e-06,1.08346167855573e-05,2.4503852070722e-05
4.58697502368301e-06,2.7967497849264e-06,7.64558900962204e-06,1.50293138182314e-05
7.40580470053178e-06,6.01522162006115e-06,1.21559822797655e-05,2.55770086003584e-05
6.28229885244808e-06,4.6940642865932e-06,1.08515513267763e-05,2.18279144658175e-05
4.16234939388267e-06,2.95559266552236e-06,8.48491101409949e-06,1.56028530735045e-05
5.03012175186773e-06,3.24869855895547e-06,8.4478471413033e-06,1.67266674521265e-05
8.12309357889261e-05,5.11910406668162e-05,4.47933325804414e-05,0.000177215309036184
4.14704083339597e-05,2.68285403407337e-05,4.45906663652582e-05,0.000112889615039952
8.24050730822966e-06,5.57042264530734e-06,2.0419777522501e-05,3.4230707476038e-05
1.03534799821842e-05,1.01888349743944e-05,1.71959725232368e-05,3.77382874798154e-05
6.71360889048601e-06,4.49419110643657e-06,1.60845970657152e-05,2.72923970626377e-05
9.40122797058505e-06,5.81878977179939e-06,1.38656004653905e-05,2.90856182077749e-05
4.93678649823591e-06,5.42514797143788e-06,9.85556232531848e-06,2.02174967949923e-05
7.08555767177303e-06,7.34224146710929e-06,1.0853905826147e-05,2.52817049650293e-05
1.65278670611099e-05,1.20765047827714e-05,1.96229810047069e-05,4.82273528485882e-05
1.35861469914366e-05,6.36620968200533e-06,1.47557973203775e-05,3.47081539938194e-05
8.65786822463305e-06,4.7897346276193e-06,1.19905566635198e-05,2.54381595157722e-05
7.50507369192864e-06,3.95067984851954e-06,1.16970849527795e-05,2.31528384932277e-05
1.27483982063842e-05,9.80856401867305e-06,1.73141313800548e-05,3.9871093605112e-05
1.27052500074684e-05,9.51381449975971e-06,1.89297347041406e-05,4.11487992113687e-05
8.14880970653177e-06,3.56842330134957e-06,1.31274697547584e-05,2.48447027626398e-05
1.02289247929675e-05,6.28961604288181e-06,1.48034741921166e-05,3.13220150279658e-05
1.04639352190422e-05,4.12749733089854e-06,1.44110405693422e-05,2.90024731192829e-05
2.31070456474728e-05,1.39516702164301e-05,1.56919425191202e-05,5.27506583830231e-05
9.33005839281347e-06,4.29354928150037e-06,1.2390596436277e-05,2.60142041105909e-05
1.02695930452665e-05,3.27595387558772e-06,1.27877845315277e-05,2.6333331452382e-05
4.78667144122172e-06,3.82992899937515e-06,9.04932607302395e-06,1.76659265136208e-05
1.31099118332433e-05,3.45287708816203e-06,1.5506010727576e-05,3.20687996489813e-05
7.1581123231904e-06,5.30396297143134e-06,9.88358750302332e-06,2.23456627976451e-05
9.13659105989022e-06,6.39711359056257e-06,1.0868145691192e-05,2.64018503416448e-05
6.3487189690426e-06,5.15457556924403e-06,1.04561673060479e-05,2.19594618443346e-05
6.82396408744632e-06,4.89683966205797e-06,1.08170750946821e-05,2.25378788441864e-05
6.29780894053898e-06,4.65500604176379e-06,1.00916121775476e-05,2.10444271598504e-05
5.81626664654731e-06,4.22736223634165e-06,9.88171546209778e-06,1.99253443449867e-05
2.05669347018896e-05,2.29520967028906e-05,2.06639239822157e-05,6.41829553869959e-05
1.16525812460246e-05,8.9931746844364e-06,2.26251215393415e-05,4.32708774698025e-05
6.89782994395765e-06,6.87699830742479e-06,1.43539220857137e-05,2.81287503370961e-05
4.00238489520926e-06,3.03706373319558e-06,9.08308145708138e-06,1.61225300854862e-05
5.49388614953976e-06,3.31180323666173e-06,9.54614933875227e-06,1.83518387249538e-05
5.31352795506394e-06,3.3849159779244e-06,8.86447923511743e-06,1.75629231681058e-05
5.41430304416849e-06,3.84506138518642e-06,9.8256035417636e-06,1.90849679711185e-05
4.34101704285978e-06,3.16052870731313e-06,8.67229430931929e-06,1.61738400594922e-05
7.19992646621483e-06,4.6009761074545e-06,1.05977804673138e-05,2.23986830409831e-05
7.88944560702471e-06,4.59792828231796e-06,9.78954495867313e-06,2.22769188480158e-05
3.77166776272669e-05,3.6853793126773e-05,2.55333915281256e-05,0.000100103862282166
2.73048542301828e-05,2.67102343961351e-05,3.6023484714613e-05,9.00385733409309e-05
1.86885318580628e-05,1.93836868933831e-05,2.96042101055931e-05,6.7676428857039e-05
9.87139202499105e-06,9.34441920685207e-06,2.25057186089049e-05,4.1721529840748e-05
1.12407223370307e-05,8.69873318102297e-06,1.41832332832342e-05,3.41226888012879e-05
1.36628791352348e-05,1.09392225369198e-05,1.85193835004056e-05,4.31214851725602e-05
9.4578220820054e-06,5.40656318947758e-06,1.05118755514291e-05,2.53762608229121e-05
9.93956411949243e-06,6.42012065499711e-06,1.33123752475208e-05,2.96720600220103e-05
8.45143284429198e-06,4.31369666349879e-06,1.08735762910279e-05,2.36387057988186e-05
6.72764271545921e-06,4.3161613847126e-06,1.05011278936229e-05,2.15449319937947e-05
6.77342678177405e-06,3.98036794274639e-06,9.85414610555987e-06,2.06079408300803e-05
5.56355308865977e-06,3.75049467210536e-06,9.41286066523838e-06,1.87269084260035e-05
5.10711097378111e-06,3.61579573755672e-06,8.37673199162918e-06,1.7099638702967e-05
6.05163360810507e-06,3.67450166946735e-06,9.69873486533818e-06,1.94248701429106e-05
5.20752101847967e-06,3.82322830767042e-06,9.56998303912708e-06,1.86007323652772e-05
5.49145285402797e-06,3.91750211596406e-06,9.46746136717901e-06,1.8876416337171e-05
5.84064988240426e-06,3.7338036854438e-06,9.573003095352e-06,1.91474566632001e-05
5.42698825355907e-06,4.18664321227513e-06,9.28446659625402e-06,1.88980980620882e-05
2.33953716124953e-05,1.53012233001153e-05,2.30948319350058e-05,6.17914268476164e-05
5.49958881503639e-05,3.16000828175471e-05,3.8781388514742e-05,0.000125377359482653
1.65574288820263e-05,9.91903404839504e-06,1.71959024272091e-05,4.36723653576305e-05
2.6266286594919e-05,1.74724353451453e-05,2.57591863253114e-05,6.94979082653757e-05
0.00022244533419038,0.000156231742056947,0.000170568002489213,0.00054924507873654
1.6333678134647e-05,1.21615224111491e-05,1.513585649653e-05,4.36310570423262e-05
4.05422059637303e-05,3.6843138398736e-05,5.69201003161742e-05,0.000134305444678641
2.71938594136262e-05,1.79599291252869e-05,2.21630138056452e-05,6.73168023445583e-05
0.000153438598133153,0.000206865650277728,6.94949259183329e-05,0.000429799174329214
2.0032431611716e-05,1.69435538535498e-05,2.15084418040273e-05,5.8484427269293e-05
6.19254391171019e-06,4.77214892028756e-06,1.05247651783151e-05,2.14894580103129e-05
7.15837948595292e-05,0.000150272434552341,8.76602652323798e-05,0.00030951649464425
4.74512306362597e-06,4.33480948314816e-06,1.26573399751207e-05,2.17372725218948e-05
1.02926601565273e-05,9.57882354467309e-06,1.96809938483451e-05,3.95524775495455e-05
9.34637696869002e-06,8.07884112965927e-06,1.62582951582126e-05,3.36835132565619e-05
1.34381368524861e-05,9.80774772238993e-06,2.06730977381169e-05,4.39189823129929e-05
1.80023374542909e-05,1.44219650525788e-05,2.9013997075006e-05,6.14382995818758e-05
4.16470272056558e-06,4.18894357268535e-06,9.03258393748986e-06,1.73862302307408e-05
1.3235434729044e-05,5.57460108393497e-06,9.85661253472305e-06,2.8666648347702e-05
1.92890505854722e-05,1.64861616887782e-05,2.36644187035953e-05,5.94396309778457e-05
1.15508367235086e-05,8.68030243643153e-06,1.50055018759748e-05,3.52366410359149e-05
6.39988890364539e-06,3.88658055495487e-06,9.72124188043014e-06,2.00077113390304e-05
1.11135322687936e-05,1.21714531950835e-05,1.86641908869197e-05,4.19491763507968e-05
3.71747235488491e-06,3.14077458843188e-06,9.07477049654147e-06,1.59330174398583e-05
4.04908233898208e-06,3.38490679213138e-06,9.33207172587599e-06,1.67660608569895e-05
4.48398423222988e-06,3.96986271403561e-06,9.92009824564276e-06,1.83739451919083e-05
6.51035815070647e-06,5.80207005433787e-06,1.26505130095797e-05,2.49629412146241e-05
7.60027051046152e-06,6.35327787532754e-06,1.29444472919419e-05,2.6897995677731e-05
3.94327662770845e-06,3.12901190858673e-06,9.56167321457029e-06,1.66339617508655e-05
4.32528484397514e-06,3.04370753875421e-06,8.96188698564688e-06,1.63308793683762e-05
3.67636278957958e-06,2.83608177467547e-06,8.8874520589162e-06,1.53998966231713e-05
3.97752885122636e-06,3.13751137062682e-06,8.43063970574162e-06,1.55456799275948e-05
4.70356429269998e-06,3.26841484618357e-06,9.57934872303124e-06,1.75513278619148e-05
1.38417386576111e-05,9.37321532037429e-06,1.54760548522084e-05,3.86910088301938e-05
7.43286396094346e-06,6.75710569378282e-06,1.53132259378141e-05,2.95031955925404e-05
6.48027672208804e-06,6.10469051289495e-06,2.44781427277138e-05,3.70631099626968e-05
6.83067985004276e-06,5.09524414119725e-06,1.22148388992082e-05,2.41407628904482e-05
2.86700398285178e-06,2.47951681398526e-06,6.79409756500252e-06,1.21406183618396e-05
3.09945423778702e-06,2.53672131088617e-06,6.56278438531338e-06,1.21989599339866e-05
3.45830920113448e-06,2.9444256673672e-06,7.76259592327627e-06,1.41653307917779e-05
1.19990625164107e-05,1.11295963486192e-05,1.76470504382594e-05,4.07757093032893e-05
4.27567129410057e-06,3.83493654672275e-06,9.65932304897793e-06,1.77699308898012e-05
2.98204053476883e-06,2.67364259951178e-06,8.02790465382956e-06,1.36835877881102e-05
7.50812827835157e-06,5.91214157555198e-06,1.05993232591337e-05,2.40195931130373e-05
4.40124365849612e-06,3.85659321995544e-06,8.50152328336056e-06,1.67593601618121e-05
3.88850657608415e-06,3.45163144579741e-06,8.32232255884769e-06,1.56624605807292e-05
5.21378396155013e-06,5.64305800339104e-06,1.40454850431003e-05,2.49023270080415e-05
3.81619990779999e-06,3.33184731391414e-06,8.34974983956972e-06,1.54977970612838e-05
4.46006929057521e-06,3.8333318204719e-06,9.72514535054022e-06,1.80185464615873e-05
4.05571267379586e-06,3.65635985195276e-06,8.32641464027349e-06,1.60384871660221e-05
5.10370171310413e-06,3.761432569248e-06,8.09629819089622e-06,1.69614324732484e-05
3.86457684301591e-06,3.24597650637977e-06,8.17110487095382e-06,1.52816582203495e-05
4.76016299454299e-06,3.81499003404414e-06,8.80110339389806e-06,1.73762564224852e-05
6.46276152103794e-06,6.13727453376837e-06,9.87118505997184e-06,2.24712211147782e-05
9.13435801415493e-06,6.37872941102708e-06,1.31830568291926e-05,2.86961442543746e-05
8.30275085502602e-06,5.44844113159812e-06,1.05538159817396e-05,2.43050079683637e-05
3.97332663599681e-06,3.2940547377529e-06,8.42547588063189e-06,1.56928572543816e-05
3.18087697908745e-06,3.27745734625283e-06,8.04226889809632e-06,1.45006032234366e-05
3.18476804367069e-06,3.11407184682736e-06,7.93148480878335e-06,1.42303246992814e-05
3.37739299814858e-06,3.35972162789998e-06,7.76645680942313e-06,1.45035714354717e-05
4.45510235703802e-06,4.48043032161909e-06,8.67141776869381e-06,1.76069504473509e-05
3.48922447736384e-06,3.7400968631054e-06,8.31558074724653e-06,1.55449020877158e-05
3.0270708908475e-06,3.09303842408792e-06,7.27720640516968e-06,1.33973157201051e-05
3.42385823010043e-06,3.66798593484008e-06,7.92526301762286e-06,1.50171071825634e-05
5.32917603747714e-06,6.17293542664019e-06,8.7842747639559e-06,2.02863862280732e-05
3.13658064785628e-06,3.16341184013869e-06,7.81388142875267e-06,1.41138739167476e-05
4.94557668561115e-06,3.68623309143284e-06,8.59244990443086e-06,1.72242596814749e-05
3.2517595272444e-05,3.00489541276738e-05,3.06580982303624e-05,9.32246476304802e-05
1.38720064906058e-05,1.79719542615939e-05,1.90845095439198e-05,5.09284702961196e-05
6.37658664720247e-06,9.11105468438004e-06,1.00853380712582e-05,2.55729794028407e-05
5.66238911769199e-06,8.16617732620193e-06,9.48726582683939e-06,2.33158322707333e-05
5.95535473308447e-06,6.60736743254691e-06,1.02142286694249e-05,2.27769508350562e-05
3.40407171141429e-06,2.6638397880139e-06,6.99283765305347e-06,1.30607491524817e-05
7.98669070852407e-06,6.00232512105756e-06,1.23468134703824e-05,2.6335829299964e-05
6.05617450856194e-06,5.16685242455495e-06,9.48587641717303e-06,2.07089033502899e-05
4.40330297700599e-06,3.2131671262451e-06,7.67136602287337e-06,1.52878361261245e-05
3.56829815045079e-06,2.64449125380395e-06,7.52363622433959e-06,1.37364256285943e-05
7.50149156108488e-06,5.40637876462782e-06,1.10343825707846e-05,2.39422528964973e-05
8.35740100189498e-06,8.01782409298152e-06,1.18621336672448e-05,2.82373587621213e-05
5.73146739092126e-06,5.42285693153727e-06,9.7078690849734e-06,2.08621934074319e-05
6.68759493519319e-06,4.72932480716076e-06,9.03277585365031e-06,2.04496955960043e-05
1.00873292356374e-05,9.80440995218442e-06,1.41738757982357e-05,3.40656149860574e-05
9.8469309794743e-06,1.0469453373715e-05,1.33449802420995e-05,3.36613645952888e-05
2.06047800693651e-05,2.43939229002584e-05,2.13031931560998e-05,6.63018961257233e-05
3.70925748116103e-05,3.73993111933426e-05,4.17750455544844e-05,0.000116266931559437
1.72418215270875e-05,1.63719680057954e-05,2.06703489489118e-05,5.42841384817946e-05
0.000109586830810233,0.000177139302879943,5.67454931542328e-05,0.000343471626844409
3.62634721878721e-05,3.09485204575029e-05,3.72656663361001e-05,0.000104477658981475
3.36891445207067e-06,2.97880217036746e-06,7.24548279848901e-06,1.35931994209271e-05
3.04076042414148e-06,2.65813442066225e-06,6.9221145592965e-06,1.26210094041002e-05
4.71992518728204e-06,4.52750457728806e-06,7.8910966225919e-06,1.7138526387162e-05
2.8472309712903e-06,2.4401164713889e-06,6.25434713838464e-06,1.15416945810638e-05
1.31312403293496e-05,7.77757224301445e-06,1.02932981683673e-05,3.12021107407314e-05
1.95994132846921e-05,1.47748934174184e-05,2.58269806645092e-05,6.02012873666198e-05
6.09874992225744e-06,7.69832256680631e-06,9.38941636435169e-06,2.31864888534154e-05
9.22280200825485e-05,4.54247749449773e-05,8.48736367532673e-05,0.000222526431780793
0.000191695628398487,0.000130815194866652,8.00212015048866e-05,0.000402532024770025
3.99918030560785e-05,3.79079931206342e-05,3.31183435706857e-05,0.000111018139747398
4.77148553152347e-05,4.22727267946108e-05,7.20521671306615e-05,0.000162039749240507
5.62394404844045e-05,1.6375979049511e-05,0.000138576940393603,0.000211192359927519
1.80615077368204e-05,1.59769250917105e-05,2.04182108109092e-05,5.445664363944e-05
2.34600551675116e-05,1.77469729179019e-05,3.08840382392396e-05,7.20910663246531e-05
7.28327340184971e-05,8.57497776666514e-05,5.80460097467971e-05,0.000216628521431946
1.96369711831324e-05,2.36100235772039e-05,2.69942675157537e-05,7.024126227609e-05
0.000129667668984695,0.000118425752846533,0.000134361925315161,0.000382455347146389
3.89935971488032e-05,2.10407170018817e-05,3.36544572583935e-05,9.36887714090784e-05
4.88714507528036e-05,2.36797680584639e-05,3.13158314669197e-05,0.000103867050278187
7.22839824573453e-05,3.080910923846e-05,4.69719380658057e-05,0.000150065029761611
5.68999900607017e-05,2.7889290059672e-05,3.61650721513098e-05,0.000120954352271684
0.000107920934473115,9.49749474682324e-05,5.81980243804679e-05,0.000261093906321816
0.000179080418331106,0.000116660353093989,0.000174771930801916,0.000470512702227011
6.78030134211659e-05,7.55440557559194e-05,7.31000212512307e-05,0.000216447090428316
3.21433775716563e-05,6.64843701933649e-05,8.60837515858109e-05,0.000184711499350832
0.000326072782315671,0.000625189129778905,0.000291955615361031,0.00124321752745561
0.00267557457148341,0.00595002261633353,0.00304974611716693,0.0116753433049839
0.00112020051056938,0.00443888018817506,0.00196614682197453,0.00752522752071898
0.00119411512008279,0.00447427390132687,0.00286448173944394,0.0085328707608536
0.00130727217294164,0.0044066053965199,0.00271099669861005,0.00842487426807159
0.00143101735692778,0.00504719787955036,0.00352577382281556,0.0100039890592937
0.00244200620425704,0.00795965414217092,0.00495362909566403,0.015355289442092
0.00166796633928356,0.00503931961416632,0.00338093732663538,0.0100882232800853
0.00140322079104402,0.00397463274823568,0.00216811179983855,0.00754596533911825
0.0013637100330178,0.00314957140264753,0.0019009441254099,0.00641422556107523
0.00143631660636263,0.0050918047665007,0.00328509833262253,0.00981321970548587
0.00148078089197012,0.00444167307068479,0.00333813410747763,0.00926058807013254
0.001638647692976,0.00437179163529984,0.00295456341245796,0.00896500274073381
0.00174738432295841,0.00464329397883919,0.0034318840391577,0.0098225623409553
0.00162384580005047,0.00503961064534606,0.00317004756463884,0.00983350401003536
0.00167766469894806,0.00473549438926847,0.00241755864830856,0.00883071773652509
0.00125311070184367,0.00445685227348463,0.00210299811264167,0.00781296108796996
0.00138941486182694,0.00362580385619402,0.00210815636892818,0.00712337508694914
0.000195894326214635,0.000251076444710974,0.000275180821766946,0.000722151592692555
0.000789679383971009,0.00186681716395801,0.00111030192144904,0.00376679846937806
0.0020051764729538,0.00435700732277558,0.00425430385045938,0.0106164876461888
0.00171078514646754,0.00534060383963028,0.00486375170647997,0.0119151406925778
0.0019891864703924,0.00575515176597122,0.0046862991140762,0.0124306373504398
0.00125456101344481,0.00497402347706456,0.00383307881003141,0.0100616633005408
0.00124399909994631,0.00543446079769436,0.00447482367321982,0.0111532835708605
0.000947452155348911,0.00397031666588709,0.00296265579747916,0.00788042461871517
0.000722648508954335,0.00333191627779694,0.00176845860811233,0.0058230233948636
0.000274594019011805,0.00106315557356136,0.000526744547573979,0.00186449414014714
4.53567665244718e-05,4.46389451993902e-05,0.000103331555231482,0.000193327266955344
5.25225931317321e-05,6.37428028824466e-05,0.000106958090598824,0.000223223486613002
0.000202768376593815,0.000165749958805872,0.000302182039256936,0.000670700374656623
0.000294373188044968,0.00113419671807055,0.000551356766045273,0.00197992667216079
0.000201732619086702,0.00090551824672657,0.000340375765791108,0.00144762663160438
3.09477814696021e-05,3.55110756596905e-05,7.59959719550873e-05,0.00014245482908438
4.39327049744156e-05,5.83970020672039e-05,7.7675922673311e-05,0.000180005629714931
0.000115315713651275,4.94048876413476e-05,0.000108907719168883,0.000273628320461506
0.000137027396918295,0.00012629172595956,0.000219753406239126,0.000483072529116982
1.1233798772698e-05,1.42443087345675e-05,1.58785723583467e-05,4.13566798656122e-05
1.91216676952323e-05,3.69969093824429e-05,5.77029607323722e-05,0.000113821537810047
1.57598894962516e-05,1.69981929549982e-05,2.49247079599609e-05,5.76827904112108e-05
2.32830597024031e-05,4.18533019199764e-05,6.49670108239161e-05,0.000130103372446296
7.45114600175958e-06,5.77114989453012e-06,1.86164073752162e-05,3.18387032715059e-05
7.10669062304951e-06,5.23409004226389e-06,1.5503116426936e-05,2.78438970922494e-05
5.96839397543699e-06,4.60561728693697e-06,1.17360495873519e-05,2.23100608497258e-05
5.54618242713803e-06,3.58622450135306e-06,1.02101694111905e-05,1.93425763396816e-05
5.74141054418728e-06,4.95437667445451e-06,1.37187373437331e-05,2.44145245623749e-05
1.36148896769026e-05,1.22623075766603e-05,2.97653053895607e-05,5.56425026431236e-05
3.05447417001028e-05,3.29311910548708e-05,5.40930310678642e-05,0.000117568963822838
8.79557837027543e-06,9.01142516381778e-06,1.99243000958858e-05,3.7731303629979e-05
8.76069034722163e-06,6.36983549165274e-06,1.88684224558914e-05,3.39989482947658e-05
5.42313086184331e-06,3.36891204428603e-06,1.01892470617705e-05,1.89812899678998e-05
6.70640011027233e-06,5.25620850474176e-06,1.43704194766654e-05,2.63330280916795e-05
4.99495100115705e-06,3.47755326405248e-06,1.10011518196539e-05,1.94736560848634e-05
6.63572800024615e-06,5.03185456174657e-06,1.30398833074678e-05,2.47074658694605e-05
2.23306733820548e-05,3.51090927763375e-05,4.8953496125637e-05,0.000106393262284029
7.2683418774482e-06,5.84334434495193e-06,1.64892503497905e-05,2.96009365721906e-05
1.48946794953038e-05,1.42399998610433e-05,2.7867226720314e-05,5.7001906076661e-05
7.08428373862497e-05,5.63484286498467e-05,0.000105037126407009,0.000232228392443106
0.00108155696002157,0.00302577394313168,0.00184757481481098,0.00595490571796423
0.000942642643170876,0.00411108758986525,0.0026326939636114,0.00768642419664753
0.00142010519447002,0.00463450805396205,0.00329917109395924,0.00935378434239131
0.000971054769916188,0.00412452510387814,0.00285788005066301,0.00795345992445734
0.000866715964113969,0.00410885769808019,0.00226551207961265,0.0072410857418068
0.00134605568487593,0.0038618418431953,0.00275417944250584,0.00796207697057708
0.00104333639906854,0.00289329045563765,0.00161644735769627,0.00555307421240246
0.00147990809884633,0.00366389611856936,0.00149384497213693,0.00663764918955262
0.00127129704347541,0.00324471380697674,0.00195923074762784,0.00647524159807999
0.000384661006495912,0.00118120191440183,0.000573036744702624,0.00213889966560036
0.000454383537646632,0.0012120106704322,0.000567371230008149,0.00223376543808698
0.000165255218220483,0.000406343785969222,0.000225837421409843,0.000797436425599548
