potencia_x,potencia_y,potencia_z,potencia_total_xyz
0.000281590733945557,0.000726375608167746,0.000703131766530096,0.0017110981086434
0.000200837682894503,0.000375647256711776,0.000368190417965974,0.000944675357572253
0.000240045266886285,0.000237197847809214,0.000146212551508757,0.000623455666204256
0.00033427236969259,0.000585954862294751,0.000260641786132344,0.00118086901811968
0.000207580650936295,0.000365791747569409,0.000193359552904207,0.000766731951409912
5.94304532166777e-05,7.42454804394501e-05,0.000104651496822443,0.00023832743047857
7.31908569394966e-05,7.21699152177288e-05,9.69160224391798e-05,0.000242276794596405
9.08741413360106e-05,0.000111416486721072,0.00012997207292161,0.000332262700978693
9.66442206602546e-05,0.000104374403376109,0.000120861383482586,0.00032188000751895
0.000126214474320655,0.000158252250967331,0.000108645079493641,0.000393111804781627
8.03601858912124e-05,0.000111754172465098,0.000102203066424616,0.000294317424780927
0.000120177397797314,0.000238779397618695,0.000141509415579788,0.000500466210995796
2.10521020825675e-05,1.1148262677636e-05,2.8651429065426e-05,6.08517938256295e-05
4.14968513865878e-05,1.83875043225086e-05,3.34867518449196e-05,9.3371107554016e-05
0.000722034298237624,0.00136104788337451,0.000723667691134341,0.00280674987274648
0.000522261766688159,0.00127535816730632,0.000816221967441919,0.0026138419014364
0.000551234743344232,0.00185255790415299,0.000818466523132292,0.00322225917062952
0.000202332819134982,0.00042931713309714,0.000294565135870405,0.000926215088102528
0.000250425032247623,0.000407544932689875,0.000264397070930365,0.000922367035867862
0.000825384622818387,0.00294448555797375,0.00084851390003271,0.00461838408082484
0.000824658930390096,0.00291438721226566,0.000726686041931051,0.00446573218458681
0.000874613745961892,0.00378487341792536,0.000821777329184554,0.00548126449307181
0.000334990947183483,0.000897378911473303,0.000404575144082611,0.0016369450027394
0.000642020810682499,0.00212418473885655,0.00103031801650384,0.00379652356604289
0.000185032229061859,0.000575919808242843,0.000299777329401233,0.00106072936670594
5.78767606652727e-05,4.76609131596752e-05,9.74108775054091e-05,0.000202948551330357
2.58128325277981e-05,1.69975636940611e-05,5.23469376771181e-05,9.51573338989773e-05
2.44422946107271e-05,1.29793379145211e-05,4.4014976398289e-05,8.14366089235372e-05
0.000153758400354293,0.000105647050801937,0.000140811072928862,0.000400216524085092
9.68560209334299e-05,0.000201966909978926,0.000122129505038006,0.000420952435950362
0.000145455364679395,0.000359527884894366,0.000157900733756634,0.000662883983330396
0.000318021281640758,0.00100573089363681,0.000403137166758043,0.00172688934203561
0.000145607298835705,0.000394269848323192,0.00017392721362112,0.000713804360780017
0.000104503795813004,0.000215578279912012,0.000166292083871795,0.000486374159596812
8.74963586758664e-05,0.000205186977689007,0.000133732141794945,0.000426415478159819
1.97848812503189e-05,3.53280821780379e-05,4.04757229364207e-05,9.55886863647775e-05
9.8390487820142e-05,0.00023971486600903,0.000128714419734596,0.000466819773563768
3.77658482237331e-05,5.33860747067413e-05,7.10876683230117e-05,0.000162239591253486
1.83318388447731e-05,3.31278666610115e-05,3.60658540542835e-05,8.75255595600681e-05
3.74038391276044e-05,3.22995782261965e-05,3.61318330347665e-05,0.000105835250388567
6.80022543733738e-05,8.03054161253463e-05,6.45003673180987e-05,0.000212808037816819
3.15675171821799e-05,6.42172347903356e-05,4.05478119653831e-05,0.000136332563937899
7.27349276169931e-05,0.000180308367722111,7.22793766369855e-05,0.00032532267197609
1.15478268104846e-05,8.63659987418119e-06,2.69812606373997e-05,4.71656873220656e-05
0.000142625015464729,0.000405575564447138,0.000144048202058304,0.000692248781970171
2.08756811502355e-05,2.90235546286075e-05,3.6464305591988e-05,8.63635413708309e-05
1.98978149453335e-05,3.24195467208287e-05,3.62606821366685e-05,8.85780438028306e-05
1.26227096184137e-05,6.92735759697148e-06,2.16528359176278e-05,4.1202903133013e-05
0.000182229715412271,0.000330040641637955,0.000159631716086095,0.000671902073136321
0.000263099663237263,0.000723353707866193,0.000370146263762572,0.00135659963486603
8.77110764625696e-05,0.000158000582066844,0.000109192965259743,0.000354904623789157
9.50642897737499e-06,6.43260793191448e-06,2.57704994542171e-05,4.17095363635066e-05
9.94159848232779e-06,7.20263334057275e-06,2.82970095541625e-05,4.5441241377063e-05
1.06782945766136e-05,7.03130843693918e-06,2.62404533423834e-05,4.39500563559361e-05
9.71805168236308e-06,6.14862180111926e-06,2.93047570991899e-05,4.51714305826722e-05
9.09738027148138e-06,6.73667113762056e-06,2.33240248075963e-05,3.91580762166982e-05
7.14354026220696e-06,5.76505525200293e-06,2.14651989256577e-05,3.43737944398675e-05
1.38762904180451e-05,1.99839979082601e-05,2.92997889641285e-05,6.31600772904337e-05
5.33894592198384e-05,6.27120118371107e-05,5.63030112651604e-05,0.00017240448232211
4.1393958713428e-05,7.84740965574778e-05,5.34320171855334e-05,0.000173300072456439
3.68965291443457e-05,5.77748000573074e-05,4.32910302089474e-05,0.0001379623594106
1.90392698640613e-05,9.60816896635621e-06,3.09622457789374e-05,5.96096846093549e-05
4.35026040627442e-05,5.90243991376322e-05,5.74166362913922e-05,0.000159943639491769
0.000615790359792595,0.000350056331139253,0.000387325706676738,0.00135317239760859
6.16577818262062e-05,0.000140562131723333,9.08031301354991e-05,0.000293023043685038
9.6984709263343e-06,7.62509981263957e-06,3.02243770063296e-05,4.75479477453034e-05
0.00017628478294242,0.00036573319799813,0.000267572409140342,0.000809590390080893
0.000625607106689546,0.00228802127226918,0.00100263455825272,0.00391626293721145
0.000246996267791468,0.00115634597322843,0.000427354010042452,0.00183069625106235
0.000404495628439478,0.00108450884080863,0.000486611290407228,0.00197561575965534
0.00016394110728675,0.000219225545055567,0.000194934730068967,0.000578101382411284
0.000110096716468467,0.000200786835349388,0.000293289514529023,0.000604173066346879
0.00060605714350678,0.00216862018523544,0.00197381855365789,0.00474849588240011
6.84802534923471e-05,9.82021852001068e-05,0.000189702698561311,0.000356385137253765
0.000415242355456324,0.00190530781458467,0.00197186707979436,0.00429241724983535
0.000287671697226766,0.000692911050752033,0.000710405082328015,0.00169098783030681
2.33868615933969e-05,3.46174430923525e-05,4.88271990953393e-05,0.000106831503781089
8.09471543889285e-06,1.70219569936382e-05,2.51942467379177e-05,5.03109191704487e-05
8.10632307430001e-06,1.18759910351951e-05,2.19322674529297e-05,4.19145815624249e-05
6.20697556063816e-06,9.13472463152391e-06,2.12992424871865e-05,3.66409426793486e-05
6.25726493961953e-06,7.64835386333788e-06,2.00802378605506e-05,3.39858566635081e-05
5.7294600183328e-06,7.02598195818506e-06,1.84042504387147e-05,3.11596924152326e-05
3.22536788313058e-05,2.68926111028649e-05,2.78809271410028e-05,8.70272170751734e-05
5.84874501170941e-06,8.66664348462435e-06,1.84436790099345e-05,3.29590675062683e-05
5.5426485935189e-06,6.26767308109209e-06,1.82210309475537e-05,3.00313526221647e-05
5.42941203418123e-06,5.82472523984389e-06,1.62418974336214e-05,2.74960347076465e-05
5.6247978520057e-06,5.66073888541953e-06,1.72142794705894e-05,2.84998162080147e-05
5.93620744805565e-06,6.49092066699026e-06,1.7267913984822e-05,2.9695042099868e-05
3.90801237325487e-05,6.65578662448641e-05,6.57752640050597e-05,0.000171413253982473
0.000143183840683615,0.000104844059488291,0.000233816073409049,0.000481843973580954
0.000134977752904501,5.7469413031533e-05,6.80093737306057e-05,0.000260456539666639
0.000114303187043769,3.74521288363323e-05,6.16518319781544e-05,0.000213407147858256
5.61278222947554e-05,4.51773344078966e-05,7.26491757881937e-05,0.000173954332490846
5.5751228893276e-06,4.37430991988961e-06,1.99831690191004e-05,2.99326018283176e-05
5.32391283370698e-06,4.0307746828165e-06,1.84995659447683e-05,2.78542534612917e-05
4.98634880685797e-06,3.90296797396893e-06,1.69040484039181e-05,2.5793365184745e-05
4.92937221856793e-06,3.87350035812279e-06,1.78974601540665e-05,2.67003327307572e-05
5.10582544634189e-06,3.94092873008143e-06,1.77264247108589e-05,2.67731788872822e-05
4.90586598254511e-06,3.73500853960915e-06,1.7525599507074e-05,2.61664740292283e-05
5.08140054258992e-06,3.8564544161998e-06,1.67049364334942e-05,2.56427913922839e-05
2.20328082441914e-05,1.87903766440948e-05,2.65854655399997e-05,6.74086504282859e-05
9.16422514006872e-06,6.69234418162507e-06,1.93088643323205e-05,3.51654336540143e-05
1.73817713489061e-05,1.06677476088021e-05,2.55409956196282e-05,5.35905145773364e-05
1.20559640561987e-05,6.40938760699702e-06,1.7769970738931e-05,3.62353224021267e-05
8.97269053350939e-05,2.64233351401333e-05,5.23976389104393e-05,0.000168547879385667
0.000115488887218594,4.20241595403383e-05,6.86652439938866e-05,0.000226178290752819
6.29141258837406e-06,4.4335887698572e-06,1.06017703769829e-05,2.13267717352142e-05
9.28314925563792e-06,5.68114413105129e-06,1.41244873858735e-05,2.90887807725627e-05
9.8679576631147e-06,7.48842399812984e-06,1.69565247842396e-05,3.43129064454841e-05
6.91436412638988e-06,5.15196564319201e-06,1.23057843497473e-05,2.43721141193292e-05
4.4304212257029e-06,3.25911608733365e-06,1.19922925941239e-05,1.96818299071604e-05
4.8457652901946e-06,3.26813102710344e-06,1.17668233329442e-05,1.98807196502423e-05
4.59538091129826e-06,3.34367732599026e-06,1.19647023122422e-05,1.99037605495307e-05
4.95920049270893e-06,3.5924171833571e-06,1.07002237198429e-05,1.92518413959089e-05
4.03599944298651e-06,3.1833935700503e-06,1.03395335017601e-05,1.75589265147969e-05
3.7565037252895e-06,3.08444494361341e-06,1.02636619739945e-05,1.71046106428974e-05
5.96235618789055e-06,5.47420209607733e-06,1.28005729412105e-05,2.42371312251784e-05
6.24745850526449e-05,1.83728079123452e-05,3.17293305397925e-05,0.000112576723504783
2.65704197147377e-05,1.65373117632922e-05,2.87900222092032e-05,7.18977536872332e-05
1.72976688453788e-05,1.34586528087421e-05,2.5973199101847e-05,5.67295207559679e-05
3.78713394974394e-05,4.1271459839221e-05,4.34587642808899e-05,0.00012260156361755
0.000129244638487966,5.34291001795786e-05,0.000109115194232017,0.000291788932899562
3.59690475987977e-05,1.48573628790772e-05,3.54569804196149e-05,8.62833908974898e-05
7.93376606025467e-05,3.65847929334415e-05,5.79819779529909e-05,0.000173904431488979
6.62165559746911e-05,3.15150010440622e-05,6.93469803175544e-05,0.000167078537336308
3.00383622058998e-05,2.17869397130565e-05,4.0499823500787e-05,9.23251254197433e-05
9.71890649356082e-05,8.24691923414012e-05,9.20408488060676e-05,0.000271699106083077
2.81867201285857e-05,1.78012239175248e-05,3.11209805668947e-05,7.71089246130052e-05
1.71011410546307e-05,1.25236833121059e-05,2.57241019679687e-05,5.53489263347053e-05
2.52101721588823e-05,1.42688283224721e-05,3.02760893387811e-05,6.97550898201354e-05
4.34371603957252e-05,1.60752628706839e-05,3.36331380041376e-05,9.31455612705468e-05
3.64531746028727e-05,1.9069698993533e-05,3.13347292401149e-05,8.68576028365206e-05
7.00028636524033e-05,4.59324959408145e-05,4.47390461702624e-05,0.00016067440576348
9.19846686998798e-06,6.82638321996157e-06,1.55375831242088e-05,3.15624332141584e-05
3.87127649583355e-06,3.19760228547112e-06,1.08505254111162e-05,1.79194041924209e-05
6.18377183124935e-06,4.55824511132095e-06,1.7423073589203e-05,2.81650905317733e-05
2.73087614410736e-05,7.87197543688998e-05,0.000180556008428368,0.000286584524238341
6.00453825842266e-06,4.50969298324249e-06,1.46826195203973e-05,2.51968507620624e-05
5.76899405404099e-06,3.88288130366134e-06,1.25368975739945e-05,2.21887729316968e-05
4.97456378760053e-06,3.41320714519506e-06,1.18116771444265e-05,2.01994480772221e-05
3.21675097750416e-05,1.43967270089243e-05,2.8072605166428e-05,7.46368419503939e-05
4.34921486002348e-05,5.30637447553071e-05,6.21497661519792e-05,0.000158705659507521
8.53315500641913e-06,6.07404615322049e-06,1.42491528364452e-05,2.88563539960848e-05
1.19437899016745e-05,8.15828984110818e-06,1.99796949006925e-05,4.00817746434752e-05
5.70937019832872e-06,4.81364363391254e-06,1.23489854701632e-05,2.28719993024045e-05
2.96887409488227e-05,2.11540450247299e-05,3.05353941631186e-05,8.13781801366711e-05
7.00673932926172e-06,6.41463041261684e-06,1.30210028374824e-05,2.64423725793609e-05
0.00063405585553727,0.000251452423181222,0.000282181360545176,0.00116768963926367
6.23554815825885e-06,6.55675713020884e-06,1.25106558778222e-05,2.53029611662899e-05
4.64342326904854e-06,4.11522494242939e-06,1.03878942873778e-05,1.91465424988557e-05
3.61141404183155e-05,2.76917962131232e-05,2.12212265871192e-05,8.5027163218558e-05
1.12154231866719e-05,7.18223154662379e-06,1.55619698764355e-05,3.39596246097312e-05
6.6588583694188e-06,6.1028690495973e-06,1.17824344009056e-05,2.45441618199217e-05
3.82894486810608e-06,3.68060937002608e-06,8.66378615094977e-06,1.61733403890819e-05
4.40750831752816e-06,3.98351556640013e-06,9.29566583043649e-06,1.76866897143648e-05
5.24360399653527e-06,4.69338774426464e-06,9.92791264160561e-06,1.98649043824055e-05
9.73313114691758e-06,1.13150027235288e-05,1.24518760906478e-05,3.35000099610942e-05
1.02350585058521e-05,7.56026732782489e-06,1.30019370756186e-05,3.07972629092956e-05
6.90362568960259e-06,5.8147689191563e-06,1.18356917974687e-05,2.45540864062276e-05
1.17753544870484e-05,8.02996417861374e-06,1.82334210898448e-05,3.80387397555069e-05
1.08011446631105e-05,9.07401928124228e-06,1.58978008342328e-05,3.57729647785856e-05
7.84412955629394e-06,7.17331177680054e-06,1.1797009000574e-05,2.68144503336685e-05
1.14823568550103e-05,9.42866277743973e-06,1.22073037484225e-05,3.31183233808725e-05
5.56312435260845e-06,4.11422728687505e-06,1.0071286480873e-05,1.97486381203565e-05
1.14881014477993e-05,9.1941097621303e-06,1.363027010059e-05,3.43124813105197e-05
8.48409320061277e-06,5.54188188869484e-06,1.11457680531856e-05,2.51717431424932e-05
4.84651534952993e-06,4.72789122788461e-06,9.53589161153195e-06,1.91102981889465e-05
6.87981549302775e-06,5.23291988125074e-06,9.77561940032916e-06,2.18883547746077e-05
4.53521793137397e-06,4.9035235772527e-06,9.46186776000136e-06,1.8900609268628e-05
4.26611356015204e-06,4.02743699446625e-06,9.49043978960886e-06,1.77839903442272e-05
6.01859034049862e-06,4.85599911668994e-06,9.85889452056575e-06,2.07334839777543e-05
4.94419070566528e-06,7.50281521418117e-06,1.13776090334039e-05,2.38246149532503e-05
2.14799743252817e-05,2.36894065121783e-05,3.14489188479827e-05,7.66182996854427e-05
2.32639666114981e-05,5.07378213700204e-05,2.51367654069789e-05,9.91385533884973e-05
7.75272205376577e-06,5.99395290116605e-06,1.1139407640916e-05,2.48860825958478e-05
6.96404334206726e-06,5.29512023949045e-06,1.08661041677776e-05,2.31252677493353e-05
3.65079285404585e-06,3.42337422824628e-06,8.74347626623569e-06,1.58176433485278e-05
8.00363010120626e-06,5.71200665138357e-06,1.11792184843074e-05,2.48948552368972e-05
3.36209892648228e-06,3.47158021051114e-06,8.47748446130568e-06,1.53111635982991e-05
7.81037929207755e-06,5.36870045994258e-06,1.00813699908263e-05,2.32604497428465e-05
5.80978814786051e-06,5.39388354580377e-06,1.12882085587149e-05,2.24918802523792e-05
5.31842753002505e-06,4.24936180432441e-06,8.82261679550859e-06,1.8390406129858e-05
4.42694797608522e-06,4.11725289551251e-06,8.65129603882767e-06,1.71954969104254e-05
6.0686944364257e-06,4.21093827749238e-06,9.07874110707681e-06,1.93583738209949e-05
4.64129739308616e-06,4.0482427590535e-06,9.13035393462192e-06,1.78198940867616e-05
5.11060018095984e-06,4.7246919523272e-06,9.56012315473215e-06,1.93954152880192e-05
6.35909646591469e-06,5.27858724253527e-06,9.90098175699389e-06,2.15386654654438e-05
9.58549517443525e-06,5.94571997853976e-06,1.29410326427687e-05,2.84722477957437e-05
3.67845181187518e-06,3.65341664495802e-06,8.3092083695338e-06,1.5641076826367e-05
3.14063726548463e-06,3.04891753558876e-06,7.89461190312872e-06,1.40841667042021e-05
4.78903196534704e-06,1.32753386058579e-05,1.30977075956479e-05,3.11620781668528e-05
4.77767156741543e-06,4.12582147939103e-06,9.53712972266882e-06,1.84406227694753e-05
3.11772030533371e-06,3.12349793323376e-06,7.58110189728437e-06,1.38223201358518e-05
3.57518631472355e-06,3.46672741056981e-06,8.17140459103601e-06,1.52133183163294e-05
3.15851146499901e-06,3.13166267089814e-06,7.27555778176983e-06,1.3565731917667e-05
4.04160264413945e-06,3.45175967863867e-06,8.15080303963333e-06,1.56441653624114e-05
4.50297564277309e-06,3.87891311606712e-06,9.30598785779314e-06,1.76878766166334e-05
3.69948072832196e-06,3.96841074696399e-06,8.89354198309575e-06,1.65614334583817e-05
3.11079199584959e-06,3.40107776035981e-06,8.02761323742859e-06,1.4539482993638e-05
6.82058070175563e-06,4.70143010324871e-06,1.03768656073221e-05,2.18988764123265e-05
3.55362785917341e-06,3.48196680604171e-06,8.34549872082005e-06,1.53810933860352e-05
1.50542747418418e-05,1.78303477841694e-05,2.53099159333352e-05,5.81945384593464e-05
6.36974971161669e-06,5.45442397330774e-06,9.42532602484602e-06,2.12494997097704e-05
3.66565131520994e-06,3.52446686434567e-06,8.1410216878129e-06,1.53311398673685e-05
6.04843624326253e-06,5.71738879903001e-06,9.03836795048256e-06,2.08041929927751e-05
3.27061052115681e-06,3.22951341479389e-06,7.41313380039138e-06,1.39132577363421e-05
4.16769999393584e-06,3.84385617022893e-06,8.36499621735357e-06,1.63765523815183e-05
3.32645106302122e-06,3.36202602890341e-06,7.50431857114509e-06,1.41927956630697e-05
5.57259478950128e-06,4.90934630714268e-06,9.58022225844966e-06,2.00621633550936e-05
4.99217154817796e-06,4.2166382277988e-06,8.56459967624298e-06,1.77734094522197e-05
7.24305489576151e-06,6.11158190857267e-06,1.13913250299934e-05,2.47459618343276e-05
4.15982729193767e-06,3.50705269386294e-06,8.59385234701706e-06,1.62607323328177e-05
3.91794215252801e-06,3.60437976981353e-06,8.30014768619517e-06,1.58224696085367e-05
3.63027424561536e-06,3.3377762603923e-06,7.89694871947954e-06,1.48649992254872e-05
4.27292313513545e-06,3.83488016966093e-06,8.67418405760046e-06,1.67819873623968e-05
3.74592363756871e-06,3.48057727868291e-06,7.68596371440038e-06,1.4912464630652e-05
4.61783211803798e-06,3.78549962573208e-06,8.8854183387393e-06,1.72887500825094e-05
4.57275115016087e-06,4.07836624871472e-06,9.26314770682309e-06,1.79142651056987e-05
4.28964342165605e-06,4.37488632829904e-06,8.75692580452683e-06,1.74214555544819e-05
4.80351667542821e-06,4.42048472948929e-06,8.80633353694423e-06,1.80303349418617e-05
5.81087014393398e-06,4.84314005726911e-06,9.90944000802918e-06,2.05634502092323e-05
4.43499537776952e-06,3.44862830430123e-06,8.0141015424445e-06,1.58977252245152e-05
3.92360786463486e-06,3.82541819248762e-06,8.06201119734828e-06,1.58110372544708e-05
5.42089692045544e-06,5.02068235531962e-06,9.48496907198374e-06,1.99265483477588e-05
5.43957397084774e-06,4.3863361875778e-06,8.84208396464691e-06,1.86679941230724e-05
3.8894643092894e-06,3.46468267601351e-06,8.10921037475201e-06,1.54633573600549e-05
3.91230423049248e-06,3.33246673319732e-06,8.27176773070388e-06,1.55165386943937e-05
3.10744763740641e-06,3.16343905406282e-06,7.324496524092e-06,1.35953832155612e-05
3.15028579162218e-06,3.19644119454114e-06,7.65064639767846e-06,1.39973733838418e-05
3.85664225403197e-06,3.41437416975894e-06,7.77694009767664e-06,1.50479565214675e-05
3.45578429669187e-06,3.2843245322417e-06,7.9856926030189e-06,1.47258014319525e-05
4.23296751767928e-06,5.28798930532727e-06,1.02654801804581e-05,1.97864370034647e-05
3.23839241782968e-06,3.18724706365422e-06,7.30310749539505e-06,1.37287469768789e-05
3.04742737383369e-06,3.0264104576827e-06,7.57947061625968e-06,1.36533084477761e-05
3.17929843912057e-06,3.34983030113065e-06,7.67026160605091e-06,1.41993903463021e-05
3.13533122014522e-06,3.28696267915872e-06,7.6694079756379e-06,1.40917018749418e-05
3.06907856189555e-06,3.20897927426669e-06,7.28318371293241e-06,1.35612415490946e-05
3.03843745049013e-06,3.14893223863058e-06,7.37129415254582e-06,1.35586638416665e-05
3.17062772670143e-06,3.1131361569051e-06,7.29520303890078e-06,1.35789669225073e-05
3.06927881134395e-06,3.01736921521594e-06,7.0206643138416e-06,1.31073123404015e-05
3.09492468527331e-06,3.16216375156914e-06,7.46438669950373e-06,1.37214751363462e-05
3.38466351242662e-06,3.13138691172931e-06,7.3701056601506e-06,1.38861560843065e-05
3.24117937418432e-06,3.32055347308332e-06,7.58811920785232e-06,1.414985205512e-05
3.06615334712528e-06,3.0298469877866e-06,7.35619732385448e-06,1.34521976587664e-05
5.54205177481677e-06,4.70410775328674e-06,9.06677000229783e-06,1.93129295304013e-05
5.70026526274781e-06,4.56036111874923e-06,9.18704036596488e-06,1.94476667474619e-05
3.28486374678041e-06,3.3602753499488e-06,7.96625317161722e-06,1.46113922683464e-05
3.85010670661796e-06,3.92270406596687e-06,8.73857789173019e-06,1.6511388664315e-05
3.59142786490132e-06,3.36945952567492e-06,7.88135033624929e-06,1.48422377268255e-05
7.08970136094344e-06,5.0312775490906e-06,1.08206035231315e-05,2.29415824331656e-05
3.53673506556241e-06,3.48112017451089e-06,7.63999578289324e-06,1.46578510229665e-05
7.22391328964382e-06,6.43283333192757e-06,1.20583299717663e-05,2.57150765933376e-05
8.86153974098037e-06,5.50829965700267e-06,9.76146847976727e-06,2.41313078777503e-05
4.1453997391181e-06,3.56766745848012e-06,7.9351262124128e-06,1.5648193410011e-05
7.82065580653401e-06,6.31975491440191e-06,1.01981078793431e-05,2.4338518600279e-05
4.98757112635614e-06,4.12379715839134e-06,9.10985127522252e-06,1.822121955997e-05
4.90994291089591e-06,4.55145901665998e-06,9.22770510438666e-06,1.86891070319425e-05
3.99558204193369e-06,3.83802485476819e-06,8.11791049799874e-06,1.59515173947006e-05
4.75767884054292e-06,4.18438032251517e-06,8.50421864298009e-06,1.74462778060382e-05
3.09796572458776e-06,2.9545773212406e-06,7.31238924392452e-06,1.33649322897529e-05
3.18769140725858e-06,3.17655355265502e-06,7.69786347798155e-06,1.40621084378952e-05
3.2826760416694e-06,3.20684112337414e-06,7.73219900871662e-06,1.42217161737602e-05
3.88064691495966e-06,4.03452106776222e-06,8.55302520163815e-06,1.646819318436e-05
4.01651425051521e-06,3.68113197533699e-06,8.79186117378886e-06,1.64895073996411e-05
2.94626210471048e-06,3.18126991064988e-06,8.12558275234763e-06,1.4253114767708e-05
3.05474342579975e-06,2.95503008487316e-06,7.43271935807817e-06,1.34424928687511e-05
3.13185346592739e-06,3.30887144819382e-06,7.63310408607083e-06,1.4073829000192e-05
3.47248652538213e-06,3.27159387916283e-06,7.55870054978451e-06,1.43027809543295e-05
3.17576428401987e-06,3.13445092469403e-06,7.68941513864188e-06,1.39996303473558e-05
3.30672360047704e-06,3.16517331612379e-06,7.68142016176416e-06,1.4153317078365e-05
2.97613255515969e-06,2.9841521553437e-06,7.1102341501435e-06,1.30705188606469e-05
3.94381499297573e-06,3.58531093226995e-06,7.94766687832196e-06,1.54767928035676e-05
7.16871772871061e-06,6.0275496841169e-06,1.08106292887922e-05,2.40068967016197e-05
3.42107977108063e-06,3.27591790830963e-06,7.9492488138241e-06,1.46462464932144e-05
3.42657738334527e-06,3.62687570757054e-06,8.18668518251795e-06,1.52401382734338e-05
3.37399041152146e-06,3.49958942880294e-06,8.03155244042213e-06,1.49051322807465e-05
3.29743433947337e-06,3.54177036189554e-06,8.2169901841782e-06,1.50561948855471e-05
3.29106886009592e-06,3.40265915758109e-06,7.97105819832073e-06,1.46647862159977e-05
3.09557778618612e-06,3.31348439919469e-06,7.88245545639028e-06,1.42915176417711e-05
3.31629907474058e-06,3.26653099534064e-06,7.54935274485917e-06,1.41321828149404e-05
3.48817367534531e-06,3.50664113492444e-06,8.03642465964817e-06,1.50312394699179e-05
3.47057545853104e-06,3.50419205836541e-06,8.2065017848307e-06,1.51812693017271e-05
3.34033460127902e-06,3.44367140410243e-06,8.47360345269064e-06,1.52576094580721e-05
3.55729889040447e-05,0.000114207524738311,9.47753970991106e-05,0.000244555910741466
1.28161956288578e-05,2.93145392083959e-05,3.63988215694279e-05,7.85295564066816e-05
4.24525919214966e-06,3.76656233702204e-06,1.0933489577458e-05,1.89453111066297e-05
3.67983150790318e-06,3.24488704256612e-06,9.90869734262737e-06,1.68334158930967e-05
1.04431223579295e-05,1.03995019166011e-05,1.97574736483213e-05,4.06000979228519e-05
1.39642760744954e-05,1.15660917410332e-05,2.04628667219403e-05,4.5993234537469e-05
7.97589046799659e-05,5.03841562598719e-05,2.8714269606106e-05,0.000158857330545944
1.5846099103128e-05,1.2431461900357e-05,1.77018393199279e-05,4.59794003234129e-05
3.1778808965071e-06,3.01389211616948e-06,9.22865645329107e-06,1.54204294659676e-05
3.18540568938589e-06,2.97605969318791e-06,9.64539349198751e-06,1.58068588745613e-05
3.12688626177926e-06,3.08335331138144e-06,9.05168145692679e-06,1.52619210300875e-05
3.45510557960246e-06,3.14443433740031e-06,9.66960914775581e-06,1.62691490647586e-05
3.42214789534819e-06,3.06876799289895e-06,9.04399313795364e-06,1.55349090262008e-05
3.40476977805968e-06,3.23916135561678e-06,9.13249643889549e-06,1.5776427572572e-05
3.10492827441354e-06,2.89739488397894e-06,9.26788569389418e-06,1.52702088522867e-05
3.39072666627024e-06,3.35551983932176e-06,9.05067972989388e-06,1.57969262354859e-05
4.46913163082209e-06,3.65376700970695e-06,1.03380073468356e-05,1.84609059873646e-05
3.11079317299943e-06,2.9714152739034e-06,8.8841074468773e-06,1.49663158937801e-05
1.38373970441545e-05,7.20733161333132e-06,1.56168573514097e-05,3.66615860088955e-05
4.37872730711784e-06,3.53898900914318e-06,1.01028189135419e-05,1.80205352298029e-05
3.08344140359404e-06,3.04372981177284e-06,8.94787983769724e-06,1.50750510530641e-05
3.26997351406067e-06,2.95693314961243e-06,8.87132603722593e-06,1.5098232700899e-05
5.45470583997573e-06,4.3449649848234e-06,1.03685302675236e-05,2.01682010923227e-05
4.16400274022087e-06,3.58345431554758e-06,9.72129699374314e-06,1.74687540495116e-05
3.96642386320941e-06,3.33600442366807e-06,9.42254578960841e-06,1.67249740764859e-05
4.18009679850153e-06,3.46227222253753e-06,9.59294783072669e-06,1.72353168517657e-05
4.14761765045477e-06,3.55976367605432e-06,9.94088673661306e-06,1.76482680631221e-05
4.32781587758814e-06,3.37834199867578e-06,9.56454941576583e-06,1.72707072920297e-05
4.19264958565047e-06,3.82334800442996e-06,9.71722784296093e-06,1.77332254330414e-05
4.04227122267317e-06,3.6115236240803e-06,9.6190378594625e-06,1.7272832706216e-05
5.34466392519781e-06,4.2284913455577e-06,1.11621989916308e-05,2.07353542623863e-05
3.36087194186988e-06,3.12799031035737e-06,9.14149611590247e-06,1.56303583681297e-05
5.88436002225809e-06,4.21970142828182e-06,1.02879733900516e-05,2.03920348405915e-05
3.35068291372e-06,2.89108336158964e-06,8.89389533429498e-06,1.51356616096046e-05
3.62909958701903e-06,3.32761530103116e-06,9.06969028439638e-06,1.60264051724466e-05
3.47219154463831e-06,3.11361837634957e-06,8.94941723429081e-06,1.55352271552787e-05
3.29427664104114e-06,2.99160632170057e-06,8.64889766638792e-06,1.49347806291296e-05
4.74927182836968e-06,4.39368185422788e-06,9.83282913413257e-06,1.89757828167301e-05
1.37579110622208e-05,9.19255375319975e-06,1.98267114887662e-05,4.27771763041867e-05
3.38360570071862e-06,2.89878601872501e-06,9.17452822905508e-06,1.54569199484987e-05
3.15990210461723e-06,2.9208689729009e-06,8.41644135345847e-06,1.44972124309766e-05
4.44502564428305e-06,4.37747354794087e-06,9.88445385812213e-06,1.8706953050346e-05
0.000156481485742572,7.50265962625826e-05,9.82908859701742e-05,0.000329798967975329
1.0876043185804e-05,7.42099060636886e-06,2.34284443804243e-05,4.17254781725972e-05
8.72584297631132e-06,5.13833479836292e-06,1.49523855030293e-05,2.88165632777035e-05
4.56568177713792e-06,3.92077214738613e-06,1.05963503434693e-05,1.90828042679934e-05
4.47083816218488e-06,3.96682399352678e-06,1.09547088801431e-05,1.93923710358548e-05
4.32793282885377e-06,3.62611692971073e-06,1.03259888265693e-05,1.82800385851338e-05
5.92325911149218e-06,4.86745249728783e-06,1.16909772348301e-05,2.24816888436101e-05
3.49833330507243e-05,2.11490082521347e-05,2.29328729615136e-05,7.90652142643726e-05
5.65893797732233e-06,3.6873952366619e-06,9.77811608577583e-06,1.91244492997601e-05
4.45773143783916e-06,4.25871492436483e-06,1.1548783274164e-05,2.02652296363679e-05
0.000102818540167046,6.8650124115505e-05,4.41028304671155e-05,0.000215571494749666
4.02434795817261e-06,3.67382681669961e-06,1.05540534412728e-05,1.8252228216145e-05
3.71690834804494e-06,3.60653760730996e-06,9.47386091088721e-06,1.67973068662421e-05
7.68654656849174e-06,6.7826286855287e-06,1.17671328931896e-05,2.623630814721e-05
1.28766503978416e-05,1.08566871010322e-05,2.04929785685417e-05,4.42263160674156e-05
1.73917466603478e-05,1.14692248819268e-05,2.45559623834294e-05,5.3416933925704e-05
6.46506298281605e-06,7.18361077072346e-06,1.73145947596212e-05,3.09632685131607e-05
2.51836012169742e-05,1.61803813854888e-05,2.62859602772211e-05,6.76499428796841e-05
4.18821188353201e-06,4.41396976269459e-06,1.21709158346892e-05,2.07730974809158e-05
3.35347020659119e-06,3.15351543806666e-06,9.08035969435316e-06,1.5587345339011e-05
4.10958089946416e-06,3.39397220858085e-06,9.69633227906767e-06,1.71998853871127e-05
4.98405950475467e-06,4.57713213361865e-06,1.00052083828629e-05,1.95664000212362e-05
4.31676596111922e-06,3.99694425420159e-06,1.11080558162732e-05,1.9421766031594e-05
3.87198820214144e-06,3.78039562327105e-06,1.00556773188073e-05,1.77080611442198e-05
4.34760576383375e-06,3.55052006149736e-06,9.27661468776022e-06,1.71747405130913e-05
3.30573473490224e-06,3.0324773721777e-06,8.81835086498484e-06,1.51565629720648e-05
5.62849204171949e-06,4.49306207225108e-06,1.05918491841219e-05,2.07134032980925e-05
4.39514698340828e-06,3.61976614743615e-06,1.03393875130874e-05,1.83543006439319e-05
4.79699083753781e-06,3.4855875919611e-06,9.57135471850107e-06,1.7853933148e-05
3.64136969156495e-06,3.29708315302399e-06,9.68641085320094e-06,1.66248636977899e-05
3.42771917870845e-06,3.20601191838632e-06,9.48868911293996e-06,1.61224202100347e-05
3.38819568058584e-06,3.33291182572144e-06,9.23912529235778e-06,1.5960232798665e-05
5.47838711313706e-06,5.56770289720552e-06,1.17999516956362e-05,2.28460417059788e-05
6.64451547904682e-06,4.27448128943369e-06,1.10842237190786e-05,2.20032204875591e-05
5.78281266214507e-06,4.51657002567956e-06,1.06354988406775e-05,2.09348815285021e-05
6.65748127261656e-06,5.00900415635837e-06,1.22391272855479e-05,2.39056127145228e-05
3.55151042590612e-06,3.66956174072982e-06,9.52675823269695e-06,1.67478303993329e-05
5.26556758843176e-06,5.4059461439786e-06,1.01507681644415e-05,2.08222818968519e-05
9.13590199775716e-06,9.55305324619636e-06,1.44657035869258e-05,3.31546588308794e-05
3.98565451767705e-06,3.84306106239086e-06,1.11500549601295e-05,1.89787705401974e-05
3.5767780546804e-06,3.65289448406402e-06,9.82503632156751e-06,1.70547088603119e-05
4.04705752936279e-06,4.95630169408899e-06,1.03512829782016e-05,1.93546422016534e-05
3.37655810533503e-06,3.06687888928326e-06,8.70688548556259e-06,1.51503224801809e-05
4.24866837446744e-06,3.31876218934066e-06,8.90316745739823e-06,1.64705980212063e-05
1.85900015305803e-05,2.21906183945204e-05,2.47724654581211e-05,6.55530853832218e-05
4.64357754405709e-06,6.12979880756014e-06,1.13539248257143e-05,2.21273011773316e-05
3.07478026975436e-06,2.85053611621176e-06,8.23283070321504e-06,1.41581470891812e-05
2.95489157166156e-06,2.75048391047106e-06,7.81560430366326e-06,1.35209797857959e-05
5.84460423480415e-06,4.46171544194168e-06,1.03237045298375e-05,2.06300242065833e-05
3.43954965443248e-06,3.35415424094254e-06,8.19754920843498e-06,1.499125310381e-05
3.16505794576701e-06,2.98165820515085e-06,7.99574559870289e-06,1.41424617496208e-05
7.75463878175654e-06,4.97575975038312e-06,1.15057615993898e-05,2.42361601315295e-05
3.48351137567699e-06,3.27113483500279e-06,8.74087279406714e-06,1.54955190047469e-05
3.14091868971878e-06,2.91015642107621e-06,8.59450696971259e-06,1.46455820805076e-05
3.17244637275377e-06,3.07267915991138e-06,8.38758802153087e-06,1.4632713554196e-05
3.15706220432829e-06,2.99119788275201e-06,8.49972613612559e-06,1.46479862232059e-05
3.12242732396969e-06,2.96860511362425e-06,8.22276626588433e-06,1.43137987034783e-05
3.06223050672312e-06,2.8329724222481e-06,7.85705445536486e-06,1.37522573843361e-05
3.10567193927881e-06,2.87074600540714e-06,7.85290928992116e-06,1.38293272346071e-05
3.13177839626749e-06,2.81807176587105e-06,7.55663898753288e-06,1.35064891496714e-05
3.02287278361689e-06,2.87014791047112e-06,7.82437153849739e-06,1.37173922325854e-05
3.14189148420553e-06,2.87493425769082e-06,7.77962250470186e-06,1.37964482465982e-05
2.9927358177435e-06,2.91579946942631e-06,7.74350365547059e-06,1.36520389426404e-05
3.00587233350719e-06,2.86103679724752e-06,7.73532009765262e-06,1.36022292284073e-05
4.88062583864654e-06,3.37401029642968e-06,9.58536330605639e-06,1.78399994411326e-05
3.19615213362289e-06,3.00186700889498e-06,8.06016713914678e-06,1.42581862816647e-05
3.26372554455552e-06,3.01250249444817e-06,8.41156924313495e-06,1.46877972821386e-05
4.16726511888529e-06,3.19878720501882e-06,8.97441378506029e-06,1.63404661089644e-05
3.84933290950086e-06,3.42354163583968e-06,8.91655533091445e-06,1.6189429876255e-05
3.08235345482696e-06,2.80838768829954e-06,8.26768150329214e-06,1.41584226464186e-05
3.21377353931549e-06,2.83054081253678e-06,8.67725423328632e-06,1.47215685851386e-05
3.05457405519271e-06,2.74822179562077e-06,8.0956919409132e-06,1.38984877917267e-05
4.59024001894779e-06,3.56511553723164e-06,1.01250427082668e-05,1.82803982644462e-05
3.13443635416884e-06,2.84551577857104e-06,8.57204971104865e-06,1.45520018437885e-05
3.46078991831303e-06,3.03479278501618e-06,9.279912446817e-06,1.57754951501462e-05
5.44643924523642e-06,4.49371898073517e-06,9.95806603509218e-06,1.98982242610638e-05
4.07067464548838e-06,3.62018624412114e-06,8.95008394098971e-06,1.66409448305992e-05
3.19285727519926e-06,2.98977774361656e-06,8.37569449537602e-06,1.45583295141918e-05
3.87409343007399e-06,3.50095102859154e-06,8.59326159659554e-06,1.59683060552611e-05
3.346722060063e-06,3.01346750571927e-06,8.6105404825973e-06,1.49707300483796e-05
9.80106971964018e-06,1.55176391159962e-05,1.47574833925838e-05,4.00761922282201e-05
1.21763429240633e-05,1.07021400633256e-05,1.64329743438308e-05,3.93114573312198e-05
3.7743439112476e-06,3.20394830863247e-06,9.00992125775566e-06,1.59882134776357e-05
6.02681614130732e-06,8.0062260818595e-06,1.20418165876433e-05,2.60748588108101e-05
6.47301017123068e-06,2.66809151297231e-05,3.0974004402462e-05,6.41279297034158e-05
6.32964616926924e-06,3.06451367471298e-05,3.44426686867589e-05,7.1417451603158e-05
3.59431955885355e-06,9.19935655113997e-06,1.23732399382892e-05,2.51669160482827e-05
2.21241773395645e-05,2.91783062583444e-05,3.53719297467971e-05,8.6674413344706e-05
1.01798049510677e-05,3.94150358651235e-05,3.87402211510488e-05,8.83350619672401e-05
5.07059964767723e-06,1.68410609753015e-05,2.27367612448708e-05,4.46484218678495e-05
5.992641300541e-06,6.9330010012414e-06,1.51481701797361e-05,2.80738124815185e-05
9.33832149372126e-06,4.01357598872797e-05,4.19496695941358e-05,9.14237509751367e-05
5.58731054286814e-06,1.30055546741478e-05,2.27268678519653e-05,4.13197330689812e-05
2.88305594130345e-06,2.85780073770509e-06,8.47279071613906e-06,1.42136473951476e-05
2.95439034341807e-06,2.94051793752152e-06,7.86717945187309e-06,1.37620877328127e-05
2.86503204439477e-06,2.69951922943207e-06,8.05662527006912e-06,1.3621176543896e-05
3.11530224704647e-06,2.90728887451593e-06,7.78432839232812e-06,1.38069195138905e-05
3.26507600248536e-06,2.91781159714147e-06,8.15562896667544e-06,1.43385165663023e-05
5.56245927996135e-06,6.92979873785166e-06,1.58996391403579e-05,2.83918971581709e-05
4.67378434618065e-06,3.60388040285834e-06,9.19294180415509e-06,1.74706065531941e-05
6.72001219560403e-06,6.61648960623652e-06,1.46743666739762e-05,2.80108684758168e-05
2.95740034421843e-06,2.82538477318356e-06,7.26047578481151e-06,1.30432609022135e-05
2.93124867055405e-06,2.64643891230216e-06,7.36122822598513e-06,1.29389158088413e-05
6.12250264955563e-06,4.28571444650321e-06,1.03687070535189e-05,2.07769241495777e-05
4.18577882396238e-06,3.56632452666358e-06,8.75313956426357e-06,1.65052429148895e-05
3.03001196239224e-06,2.70650990912431e-06,7.81368257921956e-06,1.35502044507361e-05
2.94491557829975e-06,2.69420155506431e-06,8.26508232501583e-06,1.39041994583799e-05
2.81144254139662e-06,2.7435434991174e-06,7.75261666764691e-06,1.33076027081609e-05
3.1964413050204e-06,3.15525962995894e-06,8.92459445383925e-06,1.52762953888186e-05
3.31649164375304e-06,3.13990196392212e-06,8.04666695542728e-06,1.45030605631024e-05
3.00581440506645e-06,2.97860253026297e-06,7.60758758475628e-06,1.35920045200857e-05
3.26450673624946e-06,3.08399170468631e-06,8.14551703947719e-06,1.4494015480413e-05
3.14104452236551e-06,3.15154107004701e-06,7.95189604385283e-06,1.42444816362653e-05
3.58628183438952e-06,3.42310070811981e-06,8.4620312780942e-06,1.54714138206035e-05
3.11756846508597e-06,2.95492200674983e-06,8.01411182106078e-06,1.40866022928966e-05
1.59107883539151e-05,8.88949812566007e-06,1.45391976291964e-05,3.93394841087716e-05
7.275479229668e-06,5.36841601255709e-06,1.05414996276848e-05,2.31853948699099e-05
3.97618790503289e-06,3.53445236454066e-06,8.73232316677636e-06,1.62429634363499e-05
4.29847194121818e-06,3.87057181892308e-06,9.20537516970936e-06,1.73744189298506e-05
5.1170960674933e-06,4.00191419953685e-06,9.83818676734214e-06,1.89571970343723e-05
3.39684731030662e-06,3.10508018842727e-06,8.06239862324426e-06,1.45643261219782e-05
3.23973577607871e-06,3.07494253148365e-06,7.91992384551306e-06,1.42346021530754e-05
7.06656040651341e-06,6.53172703057053e-06,1.20122872017827e-05,2.56105746388666e-05
4.09941427593674e-06,3.48426771081218e-06,8.10444448079959e-06,1.56881264675485e-05
4.55304305947247e-06,4.18942066522273e-06,9.20830144598536e-06,1.79507651706806e-05
4.26967072616983e-06,3.84107818668918e-06,8.78533948340195e-06,1.6896088396261e-05
4.09159780809707e-06,3.88978096035227e-06,9.14652904141719e-06,1.71279078098665e-05
4.19683557404707e-06,4.57436107927659e-06,9.53351905005589e-06,1.83047157033795e-05
4.26954022329081e-06,3.53991600325854e-06,8.76161775491809e-06,1.65710739814674e-05
4.28871007179794e-06,3.71944638918943e-06,9.54775120917375e-06,1.75559076701611e-05
4.27510893608817e-06,3.53770418262767e-06,8.6246462243359e-06,1.64374593430517e-05
3.22297281488325e-06,2.95877937525195e-06,7.91400575745284e-06,1.4095757947588e-05
8.22727616571925e-06,6.31792369716947e-06,1.24652224125342e-05,2.70104222754229e-05
3.85689424033723e-06,3.44880385385744e-06,8.60546762279243e-06,1.59111657169871e-05
4.22402973006021e-06,4.00254568925145e-06,9.23182408929672e-06,1.74583995086084e-05
3.18118238759008e-06,2.81122962998752e-06,8.20605858444413e-06,1.41984706020217e-05
3.81911440284936e-06,3.04218968059747e-06,8.62949402593914e-06,1.5490798109386e-05
2.98611688825886e-06,2.68157075295259e-06,7.4479298693929e-06,1.31156175106044e-05
3.28500465495935e-06,3.01977482217571e-06,8.18513171615778e-06,1.44899111932928e-05
4.78627464548815e-06,4.60775960093575e-06,9.0809175478092e-06,1.84749517942331e-05
4.08163013104428e-06,3.42312048643601e-06,8.13891779359827e-06,1.56436684110786e-05
4.3054497864234e-06,3.96952970072305e-06,8.62611330033216e-06,1.69010927874786e-05
6.23605020830365e-06,4.50137556156547e-06,9.83148573234981e-06,2.05689115022189e-05
3.58080634237072e-06,3.06663751581575e-06,8.2618975780158e-06,1.49093414362023e-05
4.84771179382161e-06,4.25182201044354e-06,1.14376697182762e-05,2.05372035225414e-05
3.50279282345646e-06,3.23460013074093e-06,8.782332077175e-06,1.55197250313724e-05
1.29311786086368e-05,1.21925125705446e-05,1.83055259421015e-05,4.34292171212829e-05
1.11381802374629e-05,9.02826643493681e-06,1.42018489370281e-05,3.43682956094279e-05
1.87513687750315e-05,1.30164151436518e-05,2.01182393913364e-05,5.18860233100196e-05
5.11129207935207e-06,8.22865127536184e-06,1.13634314747733e-05,2.47033748294872e-05
4.31752101488532e-06,5.18710163566873e-06,9.76230307889194e-06,1.9266925729446e-05
4.59497256334929e-06,6.32481815616388e-06,1.02556985701975e-05,2.11754892897107e-05
5.07282141300919e-06,8.71917051582197e-06,1.03836930830048e-05,2.4175685011836e-05
4.89527920674466e-06,8.10411110060004e-06,1.0695996793643e-05,2.36953871009877e-05
4.67435693554752e-06,8.52276512806307e-06,1.03136531741183e-05,2.35107752377288e-05
4.68646642981492e-06,8.30044056042437e-06,1.03842965405822e-05,2.33712035308215e-05
1.94861594514199e-05,1.44000636435896e-05,1.66265287510032e-05,5.05127518460126e-05
6.47976185289966e-06,1.07618771920391e-05,1.30364485733275e-05,3.02780876182663e-05
7.33630790531886e-06,7.74280181471178e-06,1.23187602540487e-05,2.73978699740793e-05
1.26141165439061e-05,1.35666492778484e-05,1.60607065967081e-05,4.22414724184626e-05
6.30188435119336e-06,7.8570967287105e-06,1.28296455836336e-05,2.69886266635374e-05
1.21229577252711e-05,1.51781288016782e-05,1.8270756729144e-05,4.55718432560933e-05
4.91624787879201e-06,1.00408042578078e-05,1.19468090283233e-05,2.69038611649232e-05
4.08449338241768e-06,5.26251399468757e-06,9.93977956384319e-06,1.92867869409484e-05
4.20705137298934e-06,5.68797954287014e-06,9.85825770987965e-06,1.97532886257391e-05
5.59424273857678e-06,7.27330570071232e-06,1.1021207961118e-05,2.38887564004071e-05
5.67012105463953e-06,8.45550045760369e-06,1.09731542827207e-05,2.50987757949639e-05
7.73088012724492e-06,1.96482985947494e-05,1.38164125081613e-05,4.11955912301556e-05
6.06080587964237e-06,1.53493589617892e-05,1.35133592608089e-05,3.49235241022404e-05
1.78144169775876e-05,3.40494923396839e-05,3.87471259169224e-05,9.06110352341939e-05
0.000132993642855498,0.000176134089359668,0.000153425906549127,0.000462553638764293
4.58742419814569e-06,3.79054875958822e-06,1.09700722085428e-05,1.93480451662768e-05
2.91167700153006e-06,2.93955257642624e-06,9.16932938234335e-06,1.50205589602996e-05
5.52639668344736e-06,5.75110003420766e-06,1.22789284794068e-05,2.35564251970618e-05
3.27384108730272e-06,3.09658066330347e-06,8.57105667367188e-06,1.49414784242781e-05
3.03757749798622e-06,2.85778294876107e-06,7.49259649318637e-06,1.33879569399337e-05
3.03191405402811e-06,2.92017942142229e-06,8.1088681285212e-06,1.40609616039716e-05
2.87579725606716e-06,2.89410839043444e-06,8.55275774641795e-06,1.43226633929196e-05
4.15596523228243e-06,3.18045707015557e-06,8.72727031094943e-06,1.60636926133874e-05
3.22261667815801e-06,2.93254838980174e-06,8.8074317825794e-06,1.49625968505392e-05
6.86029117757153e-06,4.3991568154503e-06,1.22171646198337e-05,2.34766126128555e-05
1.10305264140682e-05,9.64648359380428e-06,1.62945565164788e-05,3.69715665243513e-05
3.24584768097971e-06,3.16323862251436e-06,8.19990604975734e-06,1.46089923532514e-05
2.9557547780691e-06,2.82578309572372e-06,7.46573433210373e-06,1.32472722058965e-05
4.13864622927069e-06,4.64580850210435e-06,9.05621916847567e-06,1.78406738998507e-05
3.11612372949536e-06,3.00642746359365e-06,7.6848921592477e-06,1.38074433523367e-05
2.9779955463551e-06,2.8536118353697e-06,7.88278673845812e-06,1.37143941201829e-05
3.05428916200884e-06,2.95221817353403e-06,7.4657372258369e-06,1.34722445613798e-05
2.94489946512766e-06,2.90961318966044e-06,7.58277449374053e-06,1.34372871485286e-05
7.00374897413057e-06,5.77388548411323e-06,1.0529752273686e-05,2.33073867319298e-05
3.99186311727931e-06,4.03050575085872e-06,8.56532838788318e-06,1.65876972560212e-05
3.09068884092177e-06,3.04894926474139e-06,7.41529801220043e-06,1.35549361178636e-05
1.83230156132174e-05,1.84950065202553e-05,2.12352576674196e-05,5.80532798008923e-05
6.50489541229529e-06,7.50533301848685e-06,1.25493666740899e-05,2.6559595104872e-05
3.73432365515617e-06,3.41322073032962e-06,8.18929969691161e-06,1.53368440823974e-05
3.40288298707656e-06,3.41293542365856e-06,7.91657054281312e-06,1.47323889535482e-05
3.52867567101716e-06,3.12552961921956e-06,8.57677532062149e-06,1.52309806108582e-05
7.65758148749752e-06,5.80858347771588e-06,1.08829041726898e-05,2.43490691379032e-05
1.07965798301091e-05,1.3777670425679e-05,2.47966066777515e-05,4.93708569335396e-05
2.93400145846358e-06,2.83507986359921e-06,7.51159095899898e-06,1.32806722810618e-05
3.03950045191649e-06,2.8685868383451e-06,7.75917039297989e-06,1.36672576832415e-05
2.96498808254657e-06,2.98391592392384e-06,7.79302578951452e-06,1.37419297959849e-05
5.47750280152652e-06,6.00948979134861e-06,1.01554710505137e-05,2.16424636433888e-05
0.000113033745920502,3.21733544678642e-05,2.47359592851721e-05,0.000169943059673538
5.97298624164023e-06,4.79418632574974e-06,1.02061351604637e-05,2.09733077278537e-05
3.75267698942546e-06,3.5315206703991e-06,8.42936553281768e-06,1.57135631926422e-05
6.19346323633943e-06,7.08569450530056e-06,1.45462560512131e-05,2.78254137928531e-05
3.29062711940831e-06,2.77448755065378e-06,7.79819887993698e-06,1.38633135499991e-05
4.44440447240041e-06,3.87509971899325e-06,9.14054225431638e-06,1.746004644571e-05
3.48194138206457e-06,3.14969560485167e-06,7.6529885897786e-06,1.42846255766948e-05
3.25879611641297e-06,2.90591440711259e-06,7.35730816668299e-06,1.35220186902085e-05
3.52038395507023e-06,3.00916667051387e-06,7.70962965333879e-06,1.42391802789229e-05
3.28436095644133e-06,3.14490103690799e-06,7.77197350987813e-06,1.42012355032274e-05
6.133266979935e-06,6.44747002174853e-06,1.45558567234703e-05,2.71365937251538e-05
4.51036400898888e-06,3.82356592931431e-06,8.97522618764555e-06,1.73091561259488e-05
3.47335605849965e-06,3.13672329806493e-06,7.77560929783596e-06,1.43856886544005e-05
5.01976050055842e-06,4.25663035815963e-06,8.25727583363093e-06,1.7533666692349e-05
3.74630307098199e-06,3.56219992256164e-06,8.00041063383879e-06,1.53089136273824e-05
3.01583925150302e-06,2.62262178785482e-06,6.92052917831173e-06,1.25589902176696e-05
2.96426090891414e-06,2.75626922338112e-06,6.92231653749413e-06,1.26428466697894e-05
6.59558439651188e-06,6.81306776703583e-06,1.57894473202515e-05,2.91980994837992e-05
5.01927402048705e-05,5.89743325874185e-05,5.89162636484958e-05,0.000168083336440785
2.41713994898982e-05,2.18460892368704e-05,2.78491625717125e-05,7.38666512984811e-05
4.40271055602719e-06,3.93820600853844e-06,8.51759552209967e-06,1.68585120866653e-05
4.59025833255999e-06,4.33133422117249e-06,8.52754294251062e-06,1.74491354962431e-05
4.29592529652743e-06,3.45168809433411e-06,8.4495068532304e-06,1.61971202440919e-05
5.49171872368022e-06,5.65296592755452e-06,9.68704021865747e-06,2.08317248698922e-05
5.46059850648567e-06,5.68187564228209e-06,1.03739805375974e-05,2.15164546863651e-05
3.02750517704856e-06,2.89064790604066e-06,7.05509973396621e-06,1.29732528170554e-05
3.79584732021329e-06,3.35635408318572e-06,8.09622682477431e-06,1.52484282281733e-05
4.08347937535519e-06,4.18036325080334e-06,9.57733979735958e-06,1.78411824235181e-05
4.04156800373837e-06,4.09275451526365e-06,8.52922182452048e-06,1.66635443435225e-05
1.6263311238261e-05,1.88068370712354e-05,2.20302311533189e-05,5.71003794628152e-05
9.20988083340305e-06,1.16086850203291e-05,2.27621702686031e-05,4.35807361223352e-05
3.04163549604827e-06,3.0105538766635e-06,8.59849232545531e-06,1.46506816981671e-05
2.88033236919081e-06,2.8323083565941e-06,7.95518877743954e-06,1.36678295032245e-05
7.45179605581303e-06,5.98039498244538e-06,1.30349600561998e-05,2.64671510944582e-05
3.80298095077566e-06,3.83913239207335e-06,9.22471479321548e-06,1.68668281360645e-05
4.03292563516412e-06,4.86240847706296e-06,9.7170055468308e-06,1.86123396590579e-05
3.08912609810106e-06,2.872827489993e-06,7.75391379508977e-06,1.37158673831838e-05
3.05338668794394e-06,2.74102077903675e-06,8.22688517559941e-06,1.40212926425801e-05
3.05130894669287e-06,2.93620004742197e-06,8.08087208631636e-06,1.40683810804312e-05
3.8020338639337e-06,3.78228020813346e-06,8.79514391802494e-06,1.63794579900921e-05
3.12933686445453e-06,2.76589165353979e-06,7.92417165173727e-06,1.38194001697316e-05
3.16175794683109e-06,3.00354002505659e-06,8.09947688927735e-06,1.4264774861165e-05
3.83242492808322e-06,4.05587492185459e-06,8.98678195490573e-06,1.68750818048435e-05
3.01879013026977e-06,3.08089168271456e-06,8.41633142458639e-06,1.45160132375707e-05
4.32153102970521e-06,4.36497995146939e-06,9.81579646210343e-06,1.8502307443278e-05
5.38886780023749e-06,4.79532080617916e-06,1.12078543612445e-05,2.13920429676612e-05
3.99728201528466e-06,3.58059323274454e-06,8.5924244335498e-06,1.6170299681579e-05
3.97921775473526e-06,3.60663739581499e-06,8.80712619598491e-06,1.63929813465352e-05
3.73337357346312e-06,3.36111483903759e-06,8.59724512139203e-06,1.56917335338927e-05
4.50571105031607e-06,4.59513802946041e-06,1.0670046696433e-05,1.97708957762094e-05
4.49679037114913e-06,3.55926263919308e-06,8.52398304215231e-06,1.65800360524945e-05
6.46910225829255e-06,5.77819545868901e-06,1.0767668596789e-05,2.30149663137706e-05
2.96948113414857e-06,3.06055377204368e-06,7.55014237054404e-06,1.35801772767363e-05
3.02466466212577e-06,2.95243648596749e-06,7.45558614757306e-06,1.34326872956663e-05
2.94664680790384e-06,2.81597047730688e-06,7.62561257878578e-06,1.33882298639965e-05
8.72160054309127e-06,8.54676497989729e-06,1.33447776051224e-05,3.0613143128111e-05
2.76036985974973e-06,2.71752243341537e-06,7.14848728694397e-06,1.26263795801091e-05
3.36971037187347e-06,3.30494056583684e-06,7.53612860033918e-06,1.42107795380495e-05
6.20826653892188e-06,5.13920064197061e-06,9.70140104431197e-06,2.10488682252045e-05
5.97689586431476e-06,4.35344663389558e-06,1.07732976489964e-05,2.11036401472068e-05
8.9745388355677e-06,9.10205908494387e-06,1.17062773821724e-05,2.9782875302684e-05
3.10307211744289e-06,2.84397292814983e-06,7.54100947002305e-06,1.34880545156158e-05
3.29595145705169e-06,2.77291088540241e-06,7.18133687804945e-06,1.32501992205035e-05
2.87976200901184e-06,2.71730941923945e-06,6.86669844009812e-06,1.24637698683494e-05
2.95163763667362e-06,2.64783445692773e-06,7.1498558124842e-06,1.27493279060856e-05
7.51815276429547e-06,7.98192043157027e-06,1.24411686295751e-05,2.79412418254408e-05
6.23202022625279e-06,7.09874136133149e-06,1.11788668222568e-05,2.45096284098411e-05
2.99638225439052e-06,3.12166860831901e-06,7.62033626308691e-06,1.37383871257964e-05
3.73351873052952e-06,3.41666909862211e-06,8.91579823169748e-06,1.60659860608491e-05
3.3076262530024e-06,2.97722109358383e-06,7.23560862437072e-06,1.3520455970957e-05
3.02704612988018e-06,2.82122884521329e-06,7.07897562781391e-06,1.29272506029074e-05
3.04811542573944e-06,2.79719874593135e-06,7.03606441508028e-06,1.28813785867511e-05
6.22990195889513e-06,4.91716717973598e-06,9.33243523028465e-06,2.04795043689158e-05
3.07945763783768e-06,2.88915547387482e-06,7.24227153403127e-06,1.32108846457438e-05
2.89380785608912e-06,2.66377829557426e-06,7.02791047877016e-06,1.25854966304335e-05
5.60265397221935e-06,4.39641122411456e-06,9.05157576722456e-06,1.90506409635585e-05
3.66644048581244e-06,3.21159861620625e-06,8.10752319782672e-06,1.49855622998454e-05
3.67582320022071e-06,3.76915937836578e-06,8.18124770002344e-06,1.56262302786099e-05
3.53395746712182e-06,2.87326047718159e-06,7.39371659977814e-06,1.38009345440816e-05
3.27981259280132e-06,2.80223100025891e-06,6.97047679255197e-06,1.30525203856122e-05
3.33539270212983e-06,2.85293363360133e-06,7.02531453498435e-06,1.32136408707155e-05
3.00309099209256e-06,2.66385665436627e-06,6.68318158114587e-06,1.23501292276047e-05
3.87502167937107e-06,3.4648628191205e-06,8.24175688510067e-06,1.55816413835922e-05
6.57022527061829e-06,5.57321526029724e-06,1.28162343329983e-05,2.49596748639139e-05
3.53385415668915e-06,4.05060406508971e-06,2.00319518892019e-05,2.76164101109807e-05
3.57304988210654e-06,4.15369360483291e-06,2.20976477100947e-05,2.98243911970342e-05
3.32829742290093e-06,3.95116658539627e-06,1.90737751504478e-05,2.6353239158745e-05
3.7697029719301e-06,4.4922848368241e-06,2.4648764191989e-05,3.29107520007432e-05
3.3289897917572e-06,5.46644454986707e-06,8.50332624271884e-06,1.72987605843431e-05
2.97172471546725e-06,3.18641476202589e-06,7.74865553321918e-06,1.39067950107123e-05
2.86428569263922e-06,2.68702131918703e-06,7.15830144405945e-06,1.27096084558857e-05
2.83421030052025e-06,2.54116462794366e-06,7.24051162857494e-06,1.26158865570389e-05
1.14937160657195e-05,7.64443316845801e-06,1.17596567248189e-05,3.08978059589964e-05
3.59250763030411e-06,3.45113632019459e-06,8.58131827371646e-06,1.56249622242152e-05
3.58130841286613e-06,3.19054479723039e-06,7.38121708047401e-06,1.41530702905705e-05
6.17845012177226e-06,3.68800879121841e-06,8.25672093691879e-06,1.81231798499095e-05
3.95901443991998e-06,3.40495554374341e-06,8.58384634488666e-06,1.594781632855e-05
3.19496662289716e-06,3.04729914153788e-06,7.40604356927849e-06,1.36483093337135e-05
3.32413000889325e-06,2.94857295567764e-06,7.65075674308852e-06,1.39234597076594e-05
4.66179946413689e-06,3.62077987125717e-06,8.69296934936265e-06,1.69755486847567e-05
1.04239885572667e-05,1.09516926791587e-05,1.53795446915379e-05,3.67552259279633e-05
3.25085833438949e-06,3.05910807780034e-06,7.59504753930032e-06,1.39050139514901e-05
3.42779412060029e-06,3.5329229200408e-06,7.29223252568048e-06,1.42529495663216e-05
3.77728343716695e-06,3.50708074527699e-06,8.49422365661463e-06,1.57785878390586e-05
7.07135607517819e-06,5.58994960967201e-06,1.01063042319484e-05,2.27676099167986e-05
3.77406063250718e-06,3.32837920567912e-06,7.90557390993731e-06,1.50080137481236e-05
3.19696635073537e-06,3.07237000844504e-06,6.98506476654382e-06,1.32544011257242e-05
3.50315674564492e-06,2.94600507474605e-06,7.8541972326273e-06,1.43033590530183e-05
5.1300273647722e-06,4.15022503786361e-06,9.59727752594342e-06,1.88775299285792e-05
3.63318948872364e-06,3.18400957890569e-06,8.60447776094924e-06,1.54216768285786e-05
3.53736185690019e-06,3.17035171684343e-06,8.4207741003696e-06,1.51284876741132e-05
3.59531769291912e-06,3.1805485734917e-06,8.64884856533129e-06,1.54247148317421e-05
5.12442455405373e-06,4.83164472581793e-06,1.00994152380586e-05,2.00554845179302e-05
3.88362123996551e-06,3.54192771990842e-06,8.68835797194189e-06,1.61139069318158e-05
3.61126378257602e-06,3.13165943471187e-06,9.14165827995825e-06,1.58845814972461e-05
3.61873947192747e-06,3.35418154314513e-06,8.97548994610049e-06,1.59484109611731e-05
8.86363375689709e-06,6.76116500130335e-06,1.42740131173566e-05,2.9898811875557e-05
9.78208646497937e-06,7.49932469084176e-06,1.48303126543368e-05,3.21117238101579e-05
4.13196437741954e-06,3.73510213860425e-06,9.83706260258145e-06,1.77041291186052e-05
4.08698161588516e-06,3.5161525635705e-06,9.23301149263733e-06,1.6836145672093e-05
6.4572479488963e-06,5.81504231706865e-06,1.07275034433507e-05,2.29997937093157e-05
6.62430700041681e-06,5.944520785233e-06,1.21002720382019e-05,2.46690998238517e-05
7.30478094632427e-06,8.05229413830705e-06,1.31679747629884e-05,2.85250498476197e-05
1.33981950468887e-05,9.42068848659497e-06,1.99146643261941e-05,4.27335478596777e-05
7.60240048538171e-06,5.40785102724081e-06,1.32409970376583e-05,2.62512485502808e-05
3.60978884829492e-06,3.18916375805948e-06,7.65982058999585e-06,1.44587731963503e-05
3.66980337813532e-06,3.33864854931027e-06,8.58002352240946e-06,1.55884754498551e-05
3.50408440387215e-06,3.04032894648747e-06,8.58476861680256e-06,1.51291819671622e-05
4.16675399268756e-06,3.72973085301812e-06,8.45760575492354e-06,1.63540906006292e-05
3.25812791557634e-06,3.26037494832419e-06,8.63279547194456e-06,1.51512983358451e-05
5.89064812859431e-06,5.05114364397119e-06,9.54807641484737e-06,2.04898681874129e-05
3.37109847178917e-06,3.06678192362804e-06,7.65684732176982e-06,1.4094727717187e-05
3.35301157917038e-06,3.05167436825223e-06,7.60785172217083e-06,1.40125376695934e-05
5.53962236255404e-06,6.03690023361557e-06,9.40239924509647e-06,2.09789218412661e-05
5.46822036015078e-06,5.59873356243338e-06,9.69749262550398e-06,2.07644465480881e-05
3.57281989141858e-06,3.05914771859837e-06,8.20452611865413e-06,1.48364937286711e-05
4.53212166266662e-06,3.62033004095641e-06,8.40900907808592e-06,1.65614607817089e-05
4.70772094834305e-06,4.22123877600083e-06,8.98215784518324e-06,1.79111175695271e-05
3.12327707844521e-06,2.79828468752691e-06,7.53498584585168e-06,1.34565476118238e-05
3.28504485926146e-06,2.9137414034374e-06,7.69883845848376e-06,1.38976247211826e-05
3.17165552514786e-06,2.88507223253302e-06,7.81519275161258e-06,1.38719205092935e-05
5.33077336916903e-06,4.49320568780249e-06,1.02505333285654e-05,2.00745123855369e-05
6.99950437973172e-06,6.03390950975848e-06,1.08555825976143e-05,2.38889964871045e-05
2.84326662837468e-06,2.65743210897994e-06,7.30989111640328e-06,1.28105898537579e-05
3.15612514593208e-06,2.94102804583086e-06,7.60928925977759e-06,1.37064424515405e-05
3.31465818207717e-06,2.80330741159996e-06,7.90802306710311e-06,1.40259886607802e-05
3.03673173003028e-06,2.77675766470559e-06,7.49386192635367e-06,1.33073513210895e-05
2.97826248824889e-06,2.66086510038561e-06,7.55033100837822e-06,1.31894585970127e-05
3.2624162939464e-06,2.75154281204932e-06,7.04975581921782e-06,1.30637149252135e-05
2.96304122323257e-06,2.78275258459372e-06,7.58087241648399e-06,1.33266662243103e-05
3.0082278682408e-06,2.75580776221455e-06,6.99633418769893e-06,1.27603698181543e-05
3.06005409078517e-06,2.75058627433745e-06,7.59846470817384e-06,1.34091050732965e-05
3.07271964839742e-06,2.71544862715854e-06,8.00745649782288e-06,1.37956247733788e-05
3.2885056084428e-06,2.81064884212121e-06,7.98682735052228e-06,1.40859818010863e-05
4.0187910099076e-06,3.40429126398925e-06,8.67767333703832e-06,1.61007556109352e-05
4.04048039609499e-06,3.76962391375732e-06,8.45920611027118e-06,1.62693104201235e-05
4.75256929527298e-06,4.72811243826677e-06,7.88271839837806e-06,1.73634001319178e-05
3.91125868891275e-06,3.25629000256096e-06,8.30430870506926e-06,1.5471857396543e-05
4.27268133278105e-06,4.16523350110994e-06,8.70832051265847e-06,1.71462353465494e-05
9.34990561018721e-06,8.29060437195787e-06,1.39020860859187e-05,3.15425960680638e-05
3.20255338158815e-06,2.92287963669409e-06,8.32800881928679e-06,1.4453441837569e-05
3.22737714594354e-06,2.81691149646072e-06,7.643801395636e-06,1.36880900380403e-05
3.61900585550811e-06,3.78687806670758e-06,8.54183318830514e-06,1.59477171105208e-05
5.34524375274104e-06,4.90037489536828e-06,9.12336356360773e-06,1.93689822117171e-05
2.96346014153567e-06,3.23044299648166e-06,8.20207286282835e-06,1.43959760008457e-05
2.92994553693204e-06,2.73417334301775e-06,7.57554460699037e-06,1.32396634869402e-05
5.53272699139143e-05,4.05950761375755e-05,4.02613427273511e-05,0.000136183688778841
9.03021623809593e-05,0.000120939486026938,3.1244146247953e-05,0.00024248579465585
3.62419373186049e-06,3.00954687778189e-06,9.48691509049506e-06,1.61206557001374e-05
3.59687587725293e-06,3.19483744345935e-06,9.46594068781184e-06,1.62576540085241e-05
3.61814429255007e-06,3.11581960611161e-06,8.81488272546293e-06,1.55488466241246e-05
4.85334537951922e-06,3.98663053841278e-06,1.02827307161839e-05,1.91227066341159e-05
5.1497860665709e-06,5.30777299838159e-06,9.65055710138065e-06,2.01081161663331e-05
3.48217845694922e-06,3.10691160665597e-06,8.59829706321501e-06,1.51873871268202e-05
6.34242494270995e-06,4.92448219786934e-06,1.01613348184131e-05,2.14282419589924e-05
3.93537810321199e-06,3.18457230564128e-06,8.99569713983428e-06,1.61156475486876e-05
3.63452994555785e-06,3.09541840898743e-06,8.78011869965517e-06,1.55100670542005e-05
3.34103771558301e-06,2.90472754928768e-06,8.80054598553827e-06,1.5046311250409e-05
3.38842996652969e-06,2.84744003060382e-06,8.39961397939699e-06,1.46354839765305e-05
3.4517926328265e-06,2.93381471536012e-06,8.70642135729937e-06,1.5092028705486e-05
3.38279524429356e-06,2.81975833236274e-06,8.94556653790955e-06,1.51481201145659e-05
3.40193977952194e-06,2.9450529288029e-06,8.70465582023635e-06,1.50516485285612e-05
4.11121687630475e-06,3.34110743932035e-06,9.37646297413797e-06,1.68287872897631e-05
3.37021952443829e-06,2.92628387644118e-06,8.91914085002241e-06,1.52156442509019e-05
4.01944210622658e-06,3.42867295181499e-06,9.14492552890228e-06,1.65930405869438e-05
3.55092745690086e-06,3.19541319409875e-06,8.76840473835591e-06,1.55147453893555e-05
3.35180388106746e-06,2.97243036078986e-06,8.25555852281816e-06,1.45797927646755e-05
3.77658154063044e-06,3.12035684332509e-06,9.15642887749889e-06,1.60533672614544e-05
3.69488795349231e-06,3.12485687725864e-06,8.50397654858282e-06,1.53237213793338e-05
3.39123731443352e-06,2.98905635973894e-06,8.40471807724465e-06,1.47850117514171e-05
4.38684272763042e-06,3.32546461080075e-06,8.66330438814461e-06,1.63756117265758e-05
1.98164163386904e-05,1.47913189094007e-05,1.79838307053621e-05,5.25915659534532e-05
4.85153929038421e-06,4.02007738300456e-06,9.72890401932644e-06,1.86005206927152e-05
3.54784049635381e-06,3.08460074238835e-06,9.32766809838954e-06,1.59601093371317e-05
1.17292449095104e-05,8.6024790533769e-06,1.28893166895111e-05,3.32210406523984e-05
3.53370902696021e-06,3.25629434333095e-06,9.04944687886328e-06,1.58394502491544e-05
3.29497665015163e-06,2.91120539605988e-06,8.48589896335923e-06,1.46920810095707e-05
3.49329261636377e-06,2.96965007587145e-06,8.04120291126035e-06,1.45041456034956e-05
6.97698191802689e-05,6.83303155297302e-05,6.81417182020335e-05,0.000206241852912033
0.000402614029558601,0.000956288295704394,0.000728774527253626,0.00208767685251662
0.000202187959422995,0.000265409297965061,0.000250631555880274,0.00071822881326833
0.000360935660946519,0.0005380270124466,0.000387450609358466,0.00128641328275158
0.000535017367753209,0.00167549101441856,0.00168403457681015,0.00389454295898191
0.00018570108211367,0.000429067134192726,0.000256513632202481,0.000871281848508878
7.79327299979507e-06,5.6898285154207e-06,2.01139708607059e-05,3.35970723759216e-05
4.76515340164738e-06,4.33978231091286e-06,1.22714438378142e-05,2.13763795503744e-05
5.29953672001188e-06,4.33735536945418e-06,1.29398622510524e-05,2.25767543405185e-05
3.93570742268366e-06,3.69897377181716e-06,1.04873378889471e-05,1.81220190834479e-05
3.57860173999893e-06,3.44428684095648e-06,9.87845276969564e-06,1.69013413506511e-05
3.33684388615337e-06,3.18554728257113e-06,9.0283039229712e-06,1.55506950916957e-05
3.4312374335019e-06,3.1851381564236e-06,9.13066734994197e-06,1.57470429398675e-05
2.85408681167802e-05,1.47735687362734e-05,2.79618306799514e-05,7.12762675330049e-05
3.92610676775261e-06,3.0360191377006e-06,8.98618961782136e-06,1.59483155232746e-05
2.65831193455201e-05,1.16128020894596e-05,2.43798191500494e-05,6.25757405850291e-05
2.00716498664264e-05,7.89862546386437e-06,1.47138921692897e-05,4.26841674995804e-05
3.24750011400586e-06,3.06741378552599e-06,9.05961625459886e-06,1.53745301541307e-05
6.69650057256038e-06,3.62823552606873e-06,9.89817759663854e-06,2.02229136952677e-05
8.35811915547637e-06,4.02235214853997e-06,1.05015541162605e-05,2.28820254202769e-05
3.83725179219857e-06,3.05844063202989e-06,8.7734416944663e-06,1.56691341186948e-05
9.89491051326643e-06,5.8756081192847e-06,1.28786666176611e-05,2.86491852502122e-05
6.96105971011748e-06,8.73282286056798e-06,1.25606323181055e-05,2.8254514888791e-05
5.2671570696187e-05,2.33253432887238e-05,2.62813375104335e-05,0.000102278251495344
9.92009655978615e-06,8.07410049978363e-06,1.47919234135934e-05,3.27861204731632e-05
7.0695219942569e-06,5.95498361108458e-06,1.30883658794327e-05,2.61128714847742e-05
4.8776137473095e-05,1.99307974706295e-05,3.88166547204161e-05,0.000107523589664141
8.89027954315635e-05,7.8187173993736e-05,7.49498422410004e-05,0.0002420398116663
1.90234081640251e-05,1.00581196436265e-05,1.79893301666199e-05,4.70708579742714e-05
4.12374446511465e-05,2.5513615275415e-05,3.88770026987069e-05,0.000105628062625268
1.94900636999882e-05,8.25043870532443e-06,1.56976459265797e-05,4.34381483318923e-05
1.29666073283069e-05,6.23978300618954e-06,1.25118822848357e-05,3.17182726193322e-05
1.66684723206263e-05,6.35874352484163e-06,1.39453128763669e-05,3.69725287218348e-05
2.04574334733396e-05,6.50606654627216e-06,1.14120281322501e-05,3.83755281518619e-05
1.52356514774005e-05,5.23416738766376e-06,1.15465211336438e-05,3.2016339998708e-05
1.48764382449117e-05,1.15166530303862e-05,1.65143220435621e-05,4.290741331886e-05
6.97477460212834e-06,5.31852582532065e-06,1.24798649805371e-05,2.47731654079861e-05
5.13145892387428e-06,3.51803199391491e-06,1.01999694272761e-05,1.88494603450653e-05
5.50248561988664e-06,3.27554406327242e-06,9.54607465186578e-06,1.83241043350248e-05
5.73890823751601e-06,3.61161105246129e-06,9.66210556617009e-06,1.90126248561474e-05
7.62163170564409e-06,6.27683164188776e-06,1.18263765604548e-05,2.57248399079867e-05
8.65939168536093e-06,5.99878936272717e-06,1.19428620088195e-05,2.66010430569076e-05
3.99169964444585e-05,3.58916597012444e-05,4.67958596322252e-05,0.000122604515777928
3.74654722223072e-05,2.06622967035829e-05,3.39112066194413e-05,9.20389755453314e-05
4.65033983498769e-05,2.27005603481986e-05,4.59525766008188e-05,0.000115156535298894
1.53306735155016e-05,1.10118133535193e-05,1.93873817003642e-05,4.57298685693851e-05
6.49693362220339e-06,5.53429227098495e-06,1.23530286255611e-05,2.43842545187495e-05
1.60106329010212e-05,1.06670797044317e-05,1.6281256660859e-05,4.29589692663119e-05
8.45680288043874e-06,5.40395485718085e-06,1.2128685043292e-05,2.59894427809116e-05
9.98561519564707e-06,7.04060638861497e-06,1.29579471333371e-05,2.99841687175991e-05
9.07710689844755e-06,5.95792186364916e-06,1.27275554869755e-05,2.77625842490722e-05
7.25988179379121e-06,4.76662370938679e-06,1.08981617554771e-05,2.29246672586552e-05
6.17433070537074e-06,4.32427648253373e-06,1.10829984191887e-05,2.15816056070932e-05
4.74735763201136e-06,3.49277986542905e-06,9.0227007099693e-06,1.72628382074097e-05
1.18130375262941e-05,6.04658658811209e-06,1.61290196195488e-05,3.3988643733955e-05
7.390031667492e-06,5.66157608018712e-06,1.16664716915354e-05,2.47180794392145e-05
1.31757801161011e-05,1.1961765554419e-05,2.07630273770005e-05,4.59005730475206e-05
6.10197056788914e-06,4.59936726302866e-06,1.09193452560556e-05,2.16206830869734e-05
5.12592114505941e-06,3.81452159757357e-06,1.00194246668852e-05,1.89598674095181e-05
7.61236172016721e-06,6.16780896857843e-06,1.11727486589895e-05,2.49529193477352e-05
6.74853110060353e-06,5.10584567509613e-06,9.97176224408621e-06,2.18261390197859e-05
1.48869237577946e-05,7.63944986003451e-06,1.44788740189826e-05,3.70052476368117e-05
1.07978847270048e-05,9.26504150082439e-06,1.75888923458861e-05,3.76518185737153e-05
4.4873701545804e-06,3.74216496182695e-06,9.49110163745406e-06,1.77206367538614e-05
1.27155061525174e-05,2.24093891512638e-05,2.58818185181636e-05,6.10067138219447e-05
3.34261201132987e-05,2.23814589050081e-05,4.17684751066794e-05,9.75760541249862e-05
8.86994089887839e-06,7.75515871965252e-06,1.68362308171082e-05,3.34613304356391e-05
1.36152268838581e-05,9.51845518950682e-06,1.7320898418131e-05,4.04545804914959e-05
1.53541914469724e-05,1.11481070581325e-05,1.50240850565172e-05,4.15263835616221e-05
1.30161005780226e-05,1.00181847405286e-05,1.45680087041508e-05,3.7602294022702e-05
9.10847074184425e-06,8.52523500529612e-06,1.26471665135339e-05,3.02808722606743e-05
1.13275196100334e-05,1.09263674163023e-05,1.41460479010916e-05,3.63999349274273e-05
1.11416098249615e-05,1.03663244134644e-05,1.52226628052718e-05,3.67305970436978e-05
9.17526816267346e-06,6.86777329867618e-06,1.20602170300693e-05,2.8103258491419e-05
9.65017523553748e-06,7.79315357304251e-06,1.32528010329534e-05,3.06961298415334e-05
9.26582503492739e-06,7.22499064399287e-06,1.22754681682619e-05,2.87662838471822e-05
9.48341463303253e-06,6.3243987212617e-06,1.20143499822977e-05,2.78221633365919e-05
1.40455983630262e-05,8.13525394410176e-06,1.3136518483867e-05,3.5317370790995e-05
1.95994465867498e-05,1.34703276293725e-05,1.85549265696056e-05,5.16247007857279e-05
1.38717845507747e-05,9.09692017802238e-06,1.26837673930007e-05,3.56524721217978e-05
1.1453552833783e-05,5.89238535655393e-06,1.09964459239039e-05,2.83423841142409e-05
1.13125752822245e-05,6.60592955638491e-06,1.10133147082843e-05,2.89318195468938e-05
1.51569755797053e-05,7.26607209759886e-06,1.27522546135569e-05,3.5175302290861e-05
1.12815249682098e-05,5.85516736821749e-06,1.07574237689983e-05,2.78941161054256e-05
1.23469904719061e-05,6.911174888553e-06,1.30263728470387e-05,3.22845382074978e-05
1.718905693189e-05,1.11864798020107e-05,1.75786725845621e-05,4.59542093184628e-05
4.13197968041288e-06,3.55354397506443e-06,1.01177757740433e-05,1.78032994295206e-05
5.36392486751301e-06,3.8441831583878e-06,9.05784850923145e-06,1.82659565351323e-05
6.70281114285827e-06,4.53807977998343e-06,1.0809859975857e-05,2.20507508986987e-05
6.42634874181616e-06,4.94575450894008e-06,1.03050897377204e-05,2.16771929884767e-05
4.0515739237476e-06,3.44828756847938e-06,1.00380805199845e-05,1.75379420122115e-05
4.84388846342414e-06,4.09561366452742e-06,9.70978688811672e-06,1.86492890160683e-05
3.84481212554285e-06,3.29741057349932e-06,9.69627014354031e-06,1.68384928425825e-05
7.30379415403688e-06,4.45268892466812e-06,9.91673148225082e-06,2.16732145609558e-05
7.57491372795164e-06,5.17949290780859e-06,1.19018149501925e-05,2.46562215859527e-05
8.47530637250356e-06,5.24301274472428e-06,1.23901834178682e-05,2.6108502535096e-05
1.62367318126447e-05,1.20505363314179e-05,1.78372592280342e-05,4.61245273720967e-05
9.88259590360942e-06,6.69333548286146e-06,1.0199912563238e-05,2.67758439497089e-05
9.21486349369937e-05,7.72831557671661e-05,0.00011592841635515,0.000285360207059309
2.49748907996231e-05,1.9558544516292e-05,2.364919907284e-05,6.8182634388755e-05
2.25565367404284e-05,1.8278601510833e-05,2.14150576236892e-05,6.22501958749505e-05
1.34842220344348e-05,7.54503748563703e-06,1.43452960031888e-05,3.53745555232606e-05
1.35477816778756e-05,8.03589824910847e-06,1.3358232757498e-05,3.4941912684482e-05
1.26418742157249e-05,7.36052309583136e-06,1.16277857644776e-05,3.16301830760338e-05
1.05495116273175e-05,8.58813018451294e-06,1.47040870442321e-05,3.38417288560625e-05
1.1306551907049e-05,7.34805876691267e-06,1.21201633262048e-05,3.07747740001665e-05
1.00329183022842e-05,7.20038790627284e-06,1.17272272630806e-05,2.89605334716377e-05
9.57519146862777e-06,6.41371075776581e-06,1.16843836536126e-05,2.76732858800062e-05
9.85264020469262e-06,5.63498129054492e-06,1.26553066455337e-05,2.81429281407712e-05
9.14800204586969e-06,6.26953186066861e-06,1.18990846647024e-05,2.73166185712407e-05
6.63769196414347e-06,4.87433645781856e-06,9.6199162361054e-06,2.11319446580674e-05
1.34418347788578e-05,8.75690462495047e-06,1.22073837137226e-05,3.4406123117531e-05
1.39670287903552e-05,8.82726264014813e-06,1.38637496842245e-05,3.66580411147279e-05
9.0476847685008e-06,6.71871078804433e-06,1.20205952233839e-05,2.77869907799291e-05
1.59584045232463e-05,9.01569506055271e-06,1.36674549878648e-05,3.86415545716638e-05
1.07408761046515e-05,4.86425730515996e-06,1.08994930658136e-05,2.6504626475625e-05
1.07724495860951e-05,7.01356023933862e-06,1.16618065729684e-05,2.94478163984021e-05
1.63935593220362e-05,8.41228072972677e-06,1.33830396085537e-05,3.81888796603167e-05
9.04720947453622e-06,6.71195413439254e-06,1.09999776056064e-05,2.67591412145352e-05
8.05473312073125e-06,5.73562855444687e-06,1.06673685784273e-05,2.44577302536055e-05
8.18927940445207e-06,5.25078520014408e-06,1.09069764055465e-05,2.43470410101426e-05
8.15840950237581e-06,4.76022455144877e-06,1.06840577305956e-05,2.36026917844202e-05
6.50359884253344e-06,4.11164701969137e-06,1.02874538501354e-05,2.09026997123602e-05
6.15234965154246e-06,5.11098478876199e-06,1.01105390184009e-05,2.13738734587053e-05
8.02761805335552e-06,5.97593980952107e-06,1.08930856132418e-05,2.48966434761184e-05
9.02763315588333e-06,5.81982196323142e-06,1.19966825015383e-05,2.68441376206531e-05
6.65576610383054e-06,5.23419943265759e-06,1.08495596210544e-05,2.27395251575425e-05
6.68705010353741e-06,4.95840055662479e-06,1.13053002759552e-05,2.29507509361174e-05
9.8338041298099e-06,1.28733045118952e-05,1.92300948944213e-05,4.19372035361264e-05
1.13354808997778e-05,9.07460369334597e-06,1.38135578327129e-05,3.42236424258367e-05
8.07526193411162e-06,5.97436243257398e-06,1.06443457939277e-05,2.46939701606133e-05
6.24228062340141e-06,4.82509799812221e-06,1.02270235517087e-05,2.12944021732323e-05
1.01467325988818e-05,8.95450341958832e-06,1.22697188703621e-05,3.13709548888322e-05
6.98605031376142e-06,6.33716504775159e-06,1.12975700906337e-05,2.46207854521467e-05
7.25225263045432e-06,5.84141621186871e-06,1.19946883707254e-05,2.50883572130485e-05
5.25530822433833e-06,4.77958957813447e-06,9.91381317942787e-06,1.99487109819007e-05
6.89516988462002e-06,5.82487474570578e-06,1.17999729685732e-05,2.4520017598899e-05
6.29457992222619e-06,6.18411745205198e-06,1.13176426380688e-05,2.37963400123469e-05
7.77791145013713e-06,6.26873981705636e-06,1.12242305256242e-05,2.52708817928177e-05
6.29781906194152e-06,5.62304761268914e-06,1.09474055835775e-05,2.28682722582082e-05
7.76198311389373e-06,6.04895293162523e-06,1.2145924944142e-05,2.5956860989661e-05
9.33358710812548e-06,8.64161924041879e-06,1.62589546011249e-05,3.42341609496691e-05
6.61554890368791e-06,5.93906332131675e-06,1.21864353133444e-05,2.47410475383491e-05
1.05611658135938e-05,9.51900021716267e-06,1.28586662203392e-05,3.29388322510957e-05
7.81397759289425e-06,6.79585313094125e-06,1.17852157361605e-05,2.6395046459996e-05
6.64697118865088e-06,5.67094059757194e-06,1.11044585986861e-05,2.34223703849089e-05
8.1266598094973e-06,6.78918227581957e-06,1.37474663687628e-05,2.86633084540796e-05
5.1082438714118e-06,4.82019127413005e-06,9.49136510185987e-06,1.94198002474017e-05
0.000226222970765285,0.000191583799854659,0.000151503383117896,0.00056931015373784
8.26828231287959e-05,4.83510387251725e-05,8.43406247414152e-05,0.000215374486595384
8.01987597833988e-06,3.48514924071366e-05,5.10304272676699e-05,9.39017956531464e-05
1.16218068808731e-05,3.78658346914109e-05,3.98494819117849e-05,8.93371234840688e-05
1.01235211535701e-05,4.21411775055151e-05,4.9918845145399e-05,0.000102183543804484
6.84672594802675e-06,2.25522576774507e-05,3.34351573344938e-05,6.28341409599713e-05
1.44728956888318e-05,5.91076065252295e-05,5.13772897669358e-05,0.000124957791980997
9.79167319988239e-06,6.01879048162669e-05,5.63365054427989e-05,0.000126316083458948
5.58382432002776e-06,8.5303609284117e-06,1.32745274058645e-05,2.7388712654304e-05
5.98675708073717e-06,2.57679522236343e-05,2.95872673907646e-05,6.13419766951361e-05
3.17779146220723e-06,2.77774515948203e-06,7.98894651862278e-06,1.3944483140312e-05
5.1611771576822e-06,1.78663809327012e-05,2.46979955250238e-05,4.77255536154072e-05
3.2881074954221e-06,2.77605320467066e-06,8.31472505498451e-06,1.43788857550773e-05
3.48724961007605e-06,2.90559980009539e-06,8.0718544206573e-06,1.44647038308287e-05
2.6105029593135e-05,1.51398243201194e-05,1.68927228063359e-05,5.81375767195903e-05
5.65502865719808e-06,4.33849436328812e-06,1.14128279249368e-05,2.1406350945423e-05
1.82674424060876e-05,7.66150730922703e-06,1.52133425020024e-05,4.1142292217317e-05
7.73853763524789e-06,4.80495767186359e-06,1.07520787998223e-05,2.32955741069338e-05
7.51254671311597e-06,5.8776758121947e-06,1.16694738634472e-05,2.50596963887578e-05
4.37656110194231e-06,3.54226274465498e-06,9.31802101943809e-06,1.72368448660354e-05
5.26655722115971e-06,4.2884050445337e-06,9.85100444707372e-06,1.94059667127671e-05
7.00270443962735e-06,1.43945025130865e-05,1.84753387712056e-05,3.98725457239195e-05
4.1506372557537e-05,4.00293959007372e-05,5.57955270509728e-05,0.000137331295509247
2.48345685239309e-05,5.03464733285751e-05,6.33868466875285e-05,0.000138567888540034
1.85050810784383e-05,6.56348391831572e-05,5.6955766500503e-05,0.000141095686762099
4.67187237791842e-06,4.48936203797399e-06,9.01631236272923e-06,1.81775467786216e-05
6.00039275851991e-06,4.06329545008356e-05,5.38917766179729e-05,0.000100525123877328
4.00554210913602e-06,7.6495272904847e-06,1.40197437723165e-05,2.56748131719372e-05
1.15549868163767e-05,7.96235108341593e-06,1.21721652677262e-05,3.16895031675188e-05
3.01378482869579e-06,2.91125157730159e-06,8.37493497672386e-06,1.42999713827212e-05
1.07405495282202e-05,3.93162887255848e-05,3.7069253770657e-05,8.71260920244621e-05
4.67155412849568e-06,3.62667034712039e-06,9.18345805240306e-06,1.74816825280191e-05
4.35401965556136e-06,3.55299482617321e-06,9.13093838603931e-06,1.70379528677739e-05
2.74762755944283e-05,1.81854822289589e-05,2.37685017791931e-05,6.94302596025803e-05
3.24332769513707e-06,3.07148546806523e-06,8.53881163329317e-06,1.48536247964955e-05
3.28038650731137e-06,3.06514131979622e-06,8.08983985724594e-06,1.44353676843535e-05
3.29015292299624e-06,3.09010223796261e-06,8.93468083134734e-06,1.53149359923062e-05
3.19038237677871e-06,2.99836729145686e-06,8.32780865258473e-06,1.45165583208203e-05
1.78076516269198e-05,1.57985443082796e-05,2.14264768005745e-05,5.50326727357738e-05
7.37788673746924e-06,6.24383415266034e-06,1.13240055982169e-05,2.49457264883465e-05
5.27724299161627e-06,3.85249618215639e-06,1.05500919987286e-05,1.96798311725012e-05
7.86001636921018e-06,5.33204127910113e-06,1.23100269797709e-05,2.55020846280822e-05
4.87559930971635e-06,4.52371932171768e-06,1.30728792023774e-05,2.24721978338114e-05
4.51435936675066e-06,4.49187135773927e-06,1.15336767767841e-05,2.0539907501274e-05
3.52441475981959e-06,3.39532819426164e-06,9.04117805849903e-06,1.59609210125803e-05
4.75409001575724e-06,3.86572352378022e-06,8.79317129947401e-06,1.74129848390115e-05
3.76353230483064e-06,3.83647805983203e-06,9.50345423382716e-06,1.71034645984898e-05
3.95788560984668e-06,3.59866011435631e-06,8.98698237059963e-06,1.65435280948026e-05
3.84792843610872e-06,3.36698122912709e-06,8.97662019492455e-06,1.61915298601604e-05
3.85268647921996e-06,3.49904261510405e-06,8.41578868645443e-06,1.57675177807784e-05
3.63901587568828e-06,3.2120282079453e-06,8.80661808358517e-06,1.56576621672188e-05
6.52558591813637e-06,5.10508742885948e-06,1.00441857370211e-05,2.16748590840169e-05
5.71846784331852e-06,4.28711979232991e-06,9.67913013600069e-06,1.96847177716491e-05
6.06898435783127e-06,4.74845333523659e-06,9.7284448438232e-06,2.05458825368911e-05
3.99881524827132e-06,3.34384508488049e-06,7.74554113857618e-06,1.5088201471728e-05
5.02559605952015e-06,3.90193300019165e-06,9.30671667103212e-06,1.82342457307439e-05
5.86756928369427e-06,4.20885876293037e-06,9.93733697759838e-06,2.0013765024223e-05
9.29370560133443e-06,1.23995320920174e-05,1.51632926480638e-05,3.68565303414156e-05
7.80367554732021e-06,5.04820276227656e-06,1.13022892557838e-05,2.41541675653805e-05
5.28703216960544e-06,4.1315438568265e-06,9.25414456106314e-06,1.86727205874951e-05
1.24903271634824e-05,1.20440485838039e-05,1.74560792941322e-05,4.19904550414185e-05
0.000141392931391633,9.72824708467769e-05,0.00013521533038858,0.00037389073262699
7.17699677777781e-05,4.64977886732685e-05,7.16308875134536e-05,0.0001898986439645
1.66616923999867e-05,1.27229125033521e-05,1.62125500746777e-05,4.55971549780166e-05
4.7307708662291e-06,4.27675890166066e-06,8.46386986571583e-06,1.74713996336056e-05
5.0300673449221e-06,4.62524613315074e-06,8.56392573207133e-06,1.82192392101442e-05
4.11938767113902e-06,3.96367918610177e-06,8.19998539609828e-06,1.62830522533391e-05
7.52651631635891e-06,6.37607067053904e-06,1.26729723780143e-05,2.65755593649122e-05
0.00011841658186005,7.8553172464664e-05,9.24140780839492e-05,0.000289383832408663
5.53773355217015e-06,4.90902447168055e-06,1.17025359559291e-05,2.21492939797798e-05
4.05089624164062e-06,3.86606723175494e-06,9.9131300227628e-06,1.78300934961584e-05
4.2710838475438e-06,3.84498146489094e-06,8.87921908010865e-06,1.69952843925434e-05
8.35868137962972e-06,4.49177025686577e-06,1.16768385048253e-05,2.45272901413208e-05
2.0169386133445e-05,1.34168114911869e-05,1.64168102594816e-05,5.00030078841135e-05
7.37327197827608e-06,5.59906020684188e-06,1.14337082013989e-05,2.44060403865169e-05
4.70597043252183e-06,3.97506815125573e-06,9.3395028689276e-06,1.80205414527052e-05
1.6025001267513e-05,9.67332979445373e-06,1.72644671658656e-05,4.29627982278323e-05
4.28094510652545e-06,4.96109569346856e-06,9.73046680485704e-06,1.8972507604851e-05
4.67895240334508e-06,5.53219664473762e-06,1.02037732106732e-05,2.04149222587559e-05
7.53932927595333e-06,6.96808397018357e-06,1.45659404265979e-05,2.90733536727348e-05
3.59959597192451e-06,3.49938412967067e-06,8.33821859738801e-06,1.54371986989832e-05
3.43930249725659e-06,3.45322581471819e-06,8.03661462132525e-06,1.49291429333e-05
5.00854343651798e-06,4.57840089537706e-06,9.80238712786529e-06,1.93893314597603e-05
5.34781977529752e-06,5.37504359596774e-06,9.72952062248096e-06,2.04523839937462e-05
9.75862204996132e-06,7.00254797804143e-06,1.09320625943153e-05,2.76932326223181e-05
4.1432408737866e-06,3.77357867209689e-06,8.8240780374409e-06,1.67408975833244e-05
3.62673546490713e-06,3.69302887795779e-06,8.95397771839394e-06,1.62737420612589e-05
5.30306023297534e-06,5.24256301482929e-06,1.12316911248201e-05,2.17773143726248e-05
8.77974960238853e-06,1.21439963619604e-05,1.78128740976807e-05,3.87366200620296e-05
8.84462852509391e-06,8.88833250708666e-06,1.19429980307014e-05,2.9675959062882e-05
1.24696450162467e-05,7.69351828920704e-06,1.41935744960857e-05,3.43567378015394e-05
5.04731902564541e-06,6.08067730784289e-06,1.10571395261885e-05,2.21851358596768e-05
0.000109334519899655,7.21141076359126e-05,3.66324005578777e-05,0.000218081028093445
1.11788887799488e-05,5.07170668285253e-06,1.11636680770055e-05,2.74142635398069e-05
9.93831815746717e-06,8.61664912117459e-06,1.4628887396781e-05,3.31838546754228e-05
4.15025122705717e-06,4.24119804477962e-06,8.75056530823237e-06,1.71420145800692e-05
4.12407624678037e-06,4.06668822580146e-06,8.76237116089544e-06,1.69531356334773e-05
3.91113889187276e-06,3.67752882929275e-06,7.81497812200848e-06,1.5403645843174e-05
4.94724608457187e-06,4.49538376920941e-06,1.12469322411608e-05,2.06895620949421e-05
3.75489353941113e-06,3.55797969462551e-06,8.9002793610793e-06,1.62131525951159e-05
4.68208890701622e-06,4.62549778419005e-06,9.40882468384336e-06,1.87164113750496e-05
4.27107628307434e-06,3.60696278165665e-06,8.95156140871981e-06,1.68296004734508e-05
3.86314677720075e-06,3.51062192978503e-06,8.54839037848765e-06,1.59221590854734e-05
1.2231151357948e-05,7.33679907810898e-06,1.25935253757507e-05,3.21614758118077e-05
9.94206527295023e-06,6.69385913237324e-06,1.1738325276141e-05,2.83742496814645e-05
5.93234905176861e-06,5.30018886567579e-06,1.20058353383683e-05,2.32383732558127e-05
4.24516467630689e-06,3.91879138807241e-06,1.03275853010414e-05,1.84915413654207e-05
6.4046840762947e-06,5.70548018683157e-06,1.00459284327367e-05,2.2156092695863e-05
7.15145887048964e-06,5.27800202589811e-06,1.00645007787877e-05,2.24939616751754e-05
6.00405935605359e-06,4.96117004782047e-06,1.0007323271599e-05,2.0972552675473e-05
5.30359919624772e-06,5.01179028503273e-06,1.02197875278903e-05,2.05351770091707e-05
5.9074203977291e-06,5.10464613769997e-06,1.112007075505e-05,2.21321372904791e-05
6.78904453459429e-06,6.30038462123611e-06,1.20653655313757e-05,2.51547946872061e-05
9.85286827136835e-06,8.41750947159265e-06,1.19158920250782e-05,3.01862697680392e-05
4.56789136209001e-06,4.85639690012214e-06,1.05889966738423e-05,2.00132849360544e-05
1.58675930091319e-05,1.97601882653954e-05,5.33529405551634e-05,8.89807218296908e-05
3.53482367052983e-06,3.0292104767033e-06,7.92920266490107e-06,1.44932368121342e-05
9.85725864168278e-06,7.42513827561423e-06,1.48369410155077e-05,3.21193379328047e-05
1.26527058511436e-05,9.09188939525847e-06,1.86211052197749e-05,4.03657004661769e-05
9.36270203502751e-06,7.50321746975172e-06,1.8790242602065e-05,3.56561621068442e-05
9.69360360894814e-06,1.20295463324127e-05,1.42870333578765e-05,3.60101832992373e-05
2.64856759077919e-05,1.90723180456144e-05,3.54925365011472e-05,8.10505304545535e-05
4.20494555871722e-06,3.99870680213595e-06,1.16216830008589e-05,1.9825335361712e-05
4.83037889318079e-06,8.56752590896346e-06,1.18575674502351e-05,2.52554722523793e-05
3.22550658477138e-06,2.95871535274045e-06,8.53568935516602e-06,1.47199112926778e-05
3.49306761500713e-06,2.80330105952608e-06,8.69505604213108e-06,1.49914247166643e-05
2.69600859661257e-06,2.54119964640368e-06,7.2693755899998e-06,1.2506583833016e-05
2.06935664168637e-05,1.18853169609184e-05,1.60120453965033e-05,4.85909287742854e-05
0.000102194442104605,8.09818622766357e-05,9.40295881099831e-05,0.000277205892491223
6.92019335949613e-06,7.27722807057024e-06,1.61502751403365e-05,3.03476965704029e-05
4.44920674195827e-06,3.86098998851296e-06,1.08159893435675e-05,1.91261860740387e-05
4.5371787349261e-06,4.03372097774736e-06,1.02580084284138e-05,1.88289081410873e-05
9.14547497649182e-06,8.93875683897511e-06,1.61729855111193e-05,3.42572173265862e-05
1.11198435197466e-05,6.40444681667093e-06,1.37437134910145e-05,3.1268003827432e-05
5.71968860716816e-06,5.36529082384759e-06,1.18689352758545e-05,2.29539147068703e-05
3.56719446691366e-06,3.78934251085068e-06,9.13726523036527e-06,1.64938022081296e-05
4.93974889331771e-06,5.10947793074511e-06,1.10976435259297e-05,2.11468703499925e-05
4.52705912672812e-06,4.27791107964722e-06,1.02458215331935e-05,1.90507917395688e-05
6.96744206724305e-06,4.91952547932565e-06,1.09017915319451e-05,2.27887590785138e-05
4.13619862100183e-06,3.71050998922043e-06,9.19096820428898e-06,1.70376768145112e-05
1.25619024590582e-05,9.71933243268025e-06,1.56182545185611e-05,3.78994894102995e-05
6.22056206151034e-06,5.18156216077774e-06,1.15264655322074e-05,2.29285897544955e-05
3.24296181511003e-06,3.07400673932883e-06,8.19411991369413e-06,1.4511088468133e-05
3.43890158002698e-06,3.4449713701361e-06,8.20831548608493e-06,1.5092188436248e-05
3.9077933861476e-06,3.75996150869695e-06,9.71299464556942e-06,1.7380749540414e-05
7.86765429922764e-06,6.478979389643e-06,1.22107921645141e-05,2.65574258533848e-05
4.11070886131418e-06,3.10049854198386e-06,8.71473512723866e-06,1.59259425305367e-05
3.85609633399554e-06,3.65503584593855e-06,9.08931269890302e-06,1.66004448788371e-05
5.32338951589624e-06,5.36636004147247e-06,1.07426497107454e-05,2.14323992681141e-05
3.24955997169604e-06,3.09331387577967e-06,8.90578343328421e-06,1.52486572807599e-05
3.2673155915859e-06,3.42370828828528e-06,8.55524262822544e-06,1.52462665080966e-05
4.74928075172482e-06,3.45016601839781e-06,9.23229157518826e-06,1.74317383453109e-05
6.21092412449048e-06,5.83022180513363e-06,1.02833073343961e-05,2.23244532640202e-05
5.71763450077507e-06,4.88612237022625e-06,9.46510789015347e-06,2.00688647611548e-05
9.1726432449924e-06,8.16465563948497e-06,1.1857896610959e-05,2.91951954954364e-05
3.29010354273953e-06,3.04542112148935e-06,8.51039705223222e-06,1.48459217164611e-05
3.01381026703809e-06,2.91009488813393e-06,8.38841842928735e-06,1.43123235844594e-05
7.73997623064477e-06,5.49654976119421e-06,1.09215261066138e-05,2.41580520984528e-05
4.93941482284999e-06,4.17968508284387e-06,8.75453584447124e-06,1.78736357501651e-05
6.06580519867605e-06,4.93501156183974e-06,9.98200053352654e-06,2.09828172940423e-05
3.02221593813224e-06,2.91830591954177e-06,8.07905578612916e-06,1.40195776438032e-05
3.77477550129886e-06,3.60727499126109e-06,8.78606179508159e-06,1.61681122876415e-05
4.50889897241779e-06,4.34553760772228e-06,8.60634646244302e-06,1.74607830425831e-05
9.05073414331737e-06,5.24461521309136e-06,1.03176670390491e-05,2.46130163954578e-05
1.19193813875425e-05,4.58009950311347e-06,9.94424635969139e-06,2.64437272503474e-05
7.91581081417563e-06,6.67217340770649e-06,9.99961179698972e-06,2.45875960188718e-05
3.00801466635088e-06,2.91792153046971e-06,7.89092542798015e-06,1.38168616248007e-05
4.22851075298574e-06,3.86032765450929e-06,9.67029347747239e-06,1.77591318849674e-05
4.13324695528548e-06,3.69603801257584e-06,8.79213739536938e-06,1.66214223632307e-05
4.83278068447774e-06,4.29929482939942e-06,9.26168350931573e-06,1.83937590231929e-05
5.96376370379622e-06,5.43184085360148e-06,1.08063537340769e-05,2.22019582914746e-05
4.08278114355874e-06,3.5772857486802e-06,9.34314700910342e-06,1.70032139013424e-05
3.12732979319118e-06,3.0046701273384e-06,8.92899854554483e-06,1.50609984660744e-05
4.08153549346718e-06,3.71530398445476e-06,9.53137390346714e-06,1.73282133813891e-05
3.23560740042823e-06,3.18016787329908e-06,8.60776399826406e-06,1.50235392719914e-05
8.51789196724021e-06,6.59319681085506e-06,1.06274400759981e-05,2.57385288540934e-05
4.09049458990436e-06,3.47365200046668e-06,8.49067144777089e-06,1.60548180381419e-05
1.28642932059436e-05,9.63559104694495e-06,1.61483872106335e-05,3.8648271463522e-05
5.29842295821398e-06,4.13352959418985e-06,9.33448694306487e-06,1.87664394954687e-05
4.03571084003389e-06,3.86609113479158e-06,8.98839156881626e-06,1.68901935436417e-05
7.55289592870552e-06,6.06319146140257e-06,9.91156811395452e-06,2.35276555040626e-05
3.39310030102203e-06,3.19587198455e-06,8.12190245386387e-06,1.47108747394359e-05
6.9769234786055e-06,4.51738983562785e-06,1.03674760789203e-05,2.18617893931537e-05
3.83295439786808e-06,3.65516031571493e-06,9.42643519182514e-06,1.69145499054082e-05
3.07607190462744e-06,3.03109821998676e-06,8.28947651644131e-06,1.43966466410555e-05
5.01241752797945e-06,5.60417456817685e-06,9.52779145731408e-06,2.01443835534704e-05
3.85442310812914e-06,3.68043853493582e-06,9.27341226860539e-06,1.68082739116704e-05
4.48445679220893e-06,3.60663532071227e-06,8.57287015482117e-06,1.66639622677424e-05
4.61422445074087e-06,4.77476174260771e-06,9.81454072731712e-06,1.92035269206657e-05
3.6829422467021e-06,3.48004638899424e-06,8.62711262794038e-06,1.57901012636367e-05
5.50004161675092e-06,4.00846239627113e-06,9.52450737019859e-06,1.90330113832206e-05
7.06461353182674e-06,6.57781481060071e-06,1.13697932379964e-05,2.50122215804239e-05
5.72000593115006e-06,5.13790295722538e-06,9.905752753211e-06,2.07636616415864e-05
5.06075641029297e-06,4.9863709771981e-06,9.75673088882848e-06,1.98038582763195e-05
4.20991173178144e-06,3.89601045222117e-06,8.30079090960416e-06,1.64067130936068e-05
3.22503332319911e-06,2.89511116239123e-06,7.95274709986781e-06,1.40728915854582e-05
4.38367704294943e-06,3.53582889835148e-06,8.69519935731239e-06,1.66147052986133e-05
3.2199840274492e-06,3.02873323776825e-06,7.46828822886137e-06,1.37170054940788e-05
4.47230114866458e-06,3.96004332461103e-06,8.67068624862373e-06,1.71030307218993e-05
3.09614916963092e-06,2.83941584009707e-06,7.72762636304891e-06,1.36631913727769e-05
3.00249694893158e-06,2.77923203088798e-06,7.12130823897103e-06,1.29030372187906e-05
3.02358971454762e-06,2.90919568517383e-06,7.61528662304213e-06,1.35480720227636e-05
3.65720127846526e-06,3.38290360357806e-06,8.21246966206364e-06,1.5252574544107e-05
4.13630116433448e-06,3.41527643644047e-06,8.46509618628679e-06,1.60166737870617e-05
2.87744478563836e-06,2.85788156786362e-06,7.4744577017355e-06,1.32097840552375e-05
4.18887785189879e-06,3.70343884449054e-06,8.7209113357713e-06,1.66132280321606e-05
8.37168771050916e-06,8.54073266301788e-06,1.19220008309737e-05,2.88344212045007e-05
3.08772883077173e-06,2.86156050181455e-06,8.25553688065207e-06,1.42048262132383e-05
3.10650096762537e-06,2.92107001318101e-06,8.25118770284198e-06,1.42787586836484e-05
2.96800285024746e-06,2.80891474824249e-06,8.08524155456721e-06,1.38621591530572e-05
2.95445624080565e-06,2.8712171317857e-06,8.07524719674563e-06,1.3900920569337e-05
9.61979909682481e-06,6.58573532238324e-06,1.33937601751939e-05,2.95992945944019e-05
8.67022483393891e-06,1.85453657382674e-05,4.89187582869004e-05,7.61343488591067e-05
4.45280578155887e-06,3.9872182400393e-06,9.17449757719092e-06,1.76145215987891e-05
5.48172260989471e-06,4.85804596289282e-06,1.05365399133686e-05,2.08763084861561e-05
1.08975106694195e-05,9.98654354829467e-06,1.34611699846278e-05,3.43452242023419e-05
8.99287350060322e-06,1.50773227999982e-05,1.4155418836007e-05,3.82256151366084e-05
7.34148640745699e-06,9.98849578785318e-06,1.26087639275846e-05,2.99387461228948e-05
4.93030525778835e-06,4.26948604135541e-06,1.040025192327e-05,1.96000432224138e-05
3.32249081958954e-06,3.05960759409306e-06,8.24146298296112e-06,1.46235613966437e-05
5.68234919461684e-06,4.68867226929207e-06,1.05000920541704e-05,2.08711135180794e-05
4.26271812274298e-06,3.4615812044199e-06,8.96026554207244e-06,1.66845648692353e-05
4.05229707142359e-06,3.99766212796111e-06,1.00064718760381e-05,1.80564310754228e-05
4.39180201243354e-06,4.55053108936666e-06,9.21506172849188e-06,1.81573948302921e-05
4.75015978514608e-06,3.65098120550846e-06,9.18400971407922e-06,1.75851507047338e-05
5.13811816878496e-06,4.70208426206024e-06,1.0474546122906e-05,2.03147485537512e-05
4.80079917916651e-06,3.7393260518372e-06,9.41589753834182e-06,1.79560227693455e-05
0.000198476837396712,7.53838668973495e-05,0.000109265701871091,0.000383126406165152
1.18924938090722e-05,7.73776912073017e-06,1.84328649162601e-05,3.80631278460625e-05
1.7238557008575e-05,1.08736706629213e-05,1.80834504563264e-05,4.61956781278227e-05
6.26301960734545e-06,7.82618048377514e-05,4.66209651605323e-05,0.000131145789605629
5.03097394204575e-06,6.71583822594476e-05,3.68459254167886e-05,0.000109035281618282
4.45624858809413e-06,6.77184662776106e-05,3.79138051178207e-05,0.000110088519983525
4.30199899615312e-06,6.35059330132289e-05,3.4993605465198e-05,0.00010280153747458
3.83696523634426e-06,6.5360035533397e-05,3.75693002489958e-05,0.000106766301018737
4.12765513205681e-06,6.91949117063695e-05,3.72925723775282e-05,0.000110615139215955
3.93902621432008e-06,7.33511373109118e-05,3.70296307067676e-05,0.000114319794231999
1.19610749512909e-05,1.35837131945256e-05,1.65696112100636e-05,4.21143993558801e-05
5.19948585834372e-06,5.18728212457624e-06,9.46606513094936e-06,1.98528331138693e-05
5.38944859768176e-06,4.55449285171299e-06,8.73704765952184e-06,1.86809891089166e-05
6.53999260098536e-06,4.97145149192333e-06,1.04090032933901e-05,2.19204473862988e-05
4.28924521198903e-06,3.77603234157015e-06,8.89835094248793e-06,1.69636284960471e-05
3.8352691654996e-06,3.46223530405175e-06,8.06031111205729e-06,1.53578155816086e-05
3.254077132552e-06,3.11334934727824e-06,8.08136781776969e-06,1.44487942975999e-05
4.69825483998159e-06,3.65915876416467e-06,9.06634942816642e-06,1.74237630323127e-05
3.40482741480464e-06,3.2002370529003e-06,7.92647074668348e-06,1.45315352143884e-05
4.06956144157294e-06,3.61233162156535e-06,8.34520296221026e-06,1.60270960253486e-05
3.58219577189996e-06,3.17523580139961e-06,8.14335300253143e-06,1.4900784575831e-05
3.47142202947283e-06,3.35195310249698e-06,8.33970948611037e-06,1.51630846180802e-05
3.17039743215843e-06,2.96458571457479e-06,7.48989531348061e-06,1.36248784602138e-05
3.10122819505139e-06,3.0231048407997e-06,7.33275028123065e-06,1.34570833170817e-05
8.06590204671087e-05,4.60787094168851e-05,3.6678452755105e-05,0.000163416182639099
2.00137661575394e-05,3.74661164111133e-05,1.80484589898432e-05,7.55283415584959e-05
3.4222144999282e-06,2.91129343381414e-06,1.00549296453382e-05,1.63884375790805e-05
7.27019344160514e-06,5.10315352427764e-06,1.27048109750648e-05,2.50781579409475e-05
1.49986352267085e-05,9.24782898130033e-06,1.85395347673527e-05,4.27859989753615e-05
0.000329581314172702,0.000228811642549863,0.000411889718711621,0.000970282675434186
1.27932405170658e-05,1.00462414770284e-05,1.79492398286306e-05,4.07887218227248e-05
4.70825486250526e-06,4.94068334574459e-06,1.113885781392e-05,2.07877960221699e-05
3.49997341216063e-06,3.26351690590194e-06,8.166376244537e-06,1.49298665625996e-05
3.84710566063424e-06,4.03925994135423e-06,8.50059637481302e-06,1.63869619768015e-05
4.09244371918292e-06,3.79812622279384e-06,8.35655411670717e-06,1.62471240586839e-05
1.29904521833944e-05,1.14519638991949e-05,1.62944448382464e-05,4.07368609208357e-05
3.49035287229057e-06,3.44804832358219e-06,8.36861058316249e-06,1.53070117790352e-05
1.28234850228794e-05,7.72522407066098e-06,1.17015199800086e-05,3.22502290735489e-05
8.35168475476657e-06,7.25446648853094e-06,1.34169780107371e-05,2.90231292540346e-05
5.19522302284128e-06,4.43966722726459e-06,9.93583945005071e-06,1.95707297001566e-05
5.669901489117e-06,4.65178793988058e-06,9.33752765768309e-06,1.96592170866807e-05
6.57834862600895e-06,5.53991391983048e-06,9.25835954406506e-06,2.13766220899045e-05
3.38533344296711e-06,3.25549279179136e-06,7.85323252842541e-06,1.44940587631839e-05
9.66022358218132e-06,7.98828833444171e-06,1.22991181357397e-05,2.99476300523627e-05
3.66011533685725e-06,3.76597354965558e-06,7.71079742612908e-06,1.51368863126419e-05
6.86661992949e-06,6.02939410516788e-06,9.912988963198e-06,2.28090029978559e-05
1.15207955947448e-05,5.42041829966784e-06,1.05442816432555e-05,2.74854955376681e-05
7.40393499019309e-06,5.88151790629793e-06,1.0227060409916e-05,2.3512513306407e-05
7.98596695735176e-06,7.05326626928111e-06,1.07452207134538e-05,2.57844539400867e-05
3.92049510626521e-06,4.09275504718715e-06,8.72688719082833e-06,1.67401373442807e-05
5.63354293636515e-06,4.61432821671037e-06,7.86416114174005e-06,1.81120322948156e-05
4.79355735609502e-06,3.91579863323198e-06,8.3626355797467e-06,1.70719915690737e-05
5.40020625245275e-06,4.31496903766277e-06,9.82053166651781e-06,1.95357069566333e-05
5.13337155448427e-06,4.47961321612972e-06,9.36078067684503e-06,1.8973765447459e-05
6.51918003062633e-06,5.15401638490161e-06,1.04973939570061e-05,2.21705903725341e-05
4.54856176310103e-06,3.84227054440031e-06,8.08829905380955e-06,1.64791313613109e-05
4.04154936226473e-06,4.81124232093837e-06,7.58143058381839e-06,1.64342222670215e-05
3.91512557269371e-06,3.49112290952922e-06,8.54534578323446e-06,1.59515942654574e-05
6.78660915560765e-06,5.41719976829273e-06,1.10793864025713e-05,2.32831953264717e-05
5.85589783924268e-06,3.78505584777086e-06,9.03382359915252e-06,1.86747772861661e-05
4.76194769157176e-06,3.99909857656127e-06,8.40187241910445e-06,1.71629186872375e-05
8.50925551720899e-06,5.86110941250805e-06,1.10539465865814e-05,2.54243115162985e-05
2.29572279222509e-05,1.05329946854929e-05,2.24242697265308e-05,5.59144923342746e-05
5.6005575253511e-06,4.50618804942272e-06,1.03082210229214e-05,2.04149665976952e-05
5.85563097681048e-06,4.46130422927648e-06,1.01193053205869e-05,2.04362405266739e-05
5.74703894649624e-06,5.01292033083336e-06,1.0553000084854e-05,2.13129593621836e-05
5.50854526252113e-06,4.37831894984663e-06,9.20680620308825e-06,1.9093670415456e-05
5.47844917760929e-06,4.03354819858987e-06,8.8507069788999e-06,1.83627043550991e-05
1.55954141625449e-05,1.0124149881505e-05,1.46387042808679e-05,4.03582683249179e-05
4.50056390157567e-06,3.93481227602843e-06,8.68187446322711e-06,1.71172506408312e-05
4.10400740444968e-06,3.57322657265831e-06,8.37997190294476e-06,1.60572058800527e-05
4.26527211300223e-06,3.56696547462215e-06,8.45884438151303e-06,1.62910819691374e-05
3.92238737116151e-06,4.70064998529817e-06,1.10339060467416e-05,1.96569434032013e-05
8.51738387744424e-06,8.50188463760608e-06,1.77921191393555e-05,3.48113876544058e-05
6.24868585299055e-06,5.08323082204314e-06,1.12391409333833e-05,2.2571057608417e-05
5.81349810167456e-06,5.46003895198896e-06,1.10217857107641e-05,2.22953227644276e-05
4.00790401322865e-06,3.26576157019214e-06,9.32556257999914e-06,1.65992281634199e-05
3.78616813083589e-06,3.43547741663845e-06,9.00726589938028e-06,1.62289114468546e-05
4.43215247370753e-06,5.30227765547272e-06,1.02520923950589e-05,1.99865225242392e-05
4.74058216572315e-06,3.61911693490867e-06,8.97818475391425e-06,1.73378838545461e-05
4.16262295919369e-06,3.55851595147298e-06,8.58653526708561e-06,1.63076741777523e-05
3.49139822304943e-06,2.91439299947839e-06,8.28800945549559e-06,1.46938006780234e-05
3.43465835984906e-06,2.73437582582139e-06,8.0771155585987e-06,1.42461497442691e-05
4.52657001398583e-06,3.80960273278578e-06,9.35892669947081e-06,1.76950994462424e-05
6.7052970605776e-06,7.31216810790947e-06,1.02518579706336e-05,2.42693231391206e-05
4.19978274173434e-06,3.52235199439323e-06,8.58252896663993e-06,1.63046637027675e-05
4.83069816324925e-06,3.95731658233606e-06,9.08477733284126e-06,1.78727920784266e-05
5.26539217574365e-06,4.18288125619664e-06,9.27475933463468e-06,1.8723032766575e-05
4.91509551336098e-06,3.85859134462146e-06,8.67794927814283e-06,1.74516361361253e-05
4.53274843797343e-06,3.56451700825347e-06,8.88178014701986e-06,1.69790455932468e-05
4.91201285036569e-06,3.3897473048597e-06,8.02773172012893e-06,1.63294918753543e-05
4.89419550830786e-06,3.51321109692402e-06,8.59813121200547e-06,1.70055378172373e-05
3.45811453019053e-06,2.86994127639753e-06,7.66538162537555e-06,1.39934374319636e-05
3.60438323391826e-06,2.89278650995775e-06,8.02874658333148e-06,1.45259163272075e-05
3.3410895492807e-06,2.74262159680515e-06,7.62680312987508e-06,1.37105142759609e-05
5.80873262241524e-06,4.38001854905694e-06,9.5353807371701e-06,1.97241319086423e-05
3.77512391521815e-06,2.8276262332245e-06,8.34617616227774e-06,1.49489263107204e-05
4.33539340524407e-06,3.02808981742858e-06,8.16408301826949e-06,1.55275662409421e-05
4.1603914757907e-06,3.01853118750925e-06,8.51132760764065e-06,1.56902502709406e-05
3.50588021878688e-06,2.81896431990163e-06,7.68279118704699e-06,1.40076357257355e-05
4.36272390251476e-06,3.44692577966978e-06,8.25055840918161e-06,1.60602080913661e-05
6.17121846187098e-06,4.63885525189474e-06,9.81512694314328e-06,2.0625200656909e-05
3.76505638160752e-06,3.08671922296311e-06,7.60479577403527e-06,1.44565713786059e-05
5.18903055338468e-06,4.60768204959026e-06,9.72619878603375e-06,1.95229113890087e-05
4.37189849331777e-06,3.87207820491593e-06,8.36468051355341e-06,1.66086572117871e-05
7.01649664630739e-06,4.45458582494384e-06,8.7270081876193e-06,2.01980906588705e-05
7.64873942195389e-06,5.52243546939686e-06,9.30251301082477e-06,2.24736879021755e-05
6.03588651603759e-06,4.7760050617154e-06,9.08249308051807e-06,1.98943846582711e-05
7.66534352793113e-06,6.37181061622882e-06,1.04700857446609e-05,2.45072398888208e-05
4.20905022528941e-06,3.96127502051961e-06,8.9460141080139e-06,1.71163393538229e-05
0.000190180568877198,0.000182206760136051,0.000152764695116141,0.00052515202412939
3.2026767626808e-05,1.24355134045246e-05,3.46895438195253e-05,7.9151824850858e-05
5.00470294505743e-05,2.52315307799173e-05,4.33321130712625e-05,0.000118610673301754
0.000139924476024435,0.000185058501074258,0.000132583556741421,0.000457566533840114
0.000187281757824982,0.000401769718231541,0.000180068213887676,0.000769119689944199
1.0706483326465e-05,2.3098415613215e-05,2.60112869997694e-05,5.98161859394494e-05
1.45587585793041e-05,1.35628079006057e-05,3.09643353219882e-05,5.9085901801898e-05
1.08632362291365e-05,8.19032241671328e-06,1.55115408401641e-05,3.45650994860139e-05
8.49662485471672e-06,8.75650845660014e-06,1.58917838747846e-05,3.31449171861015e-05
1.05401655062469e-05,1.67163608156163e-05,2.85278414079432e-05,5.57843677298064e-05
1.25419705758247e-05,4.87876732998734e-05,3.70350923433371e-05,9.83647362190352e-05
8.36427481516962e-06,3.00015178540756e-05,2.54140650569609e-05,6.37798577262062e-05
7.51400139442154e-06,1.64581552266937e-05,2.00483420244672e-05,4.40204986455825e-05
1.52607787012193e-05,1.76058566468789e-05,2.0433449608693e-05,5.33000849567912e-05
4.62847373067943e-05,1.99309778987965e-05,3.48996324104051e-05,0.000101115347615996
2.16768195251969e-05,1.37771078460375e-05,2.49074374605444e-05,6.03613648317788e-05
4.72754393576282e-06,1.32110732214194e-05,1.34054113980619e-05,3.13440285552442e-05
2.76102871111698e-05,3.12468467393802e-05,2.57832861402376e-05,8.46404199907875e-05
1.3668455416434e-05,2.77757391613879e-05,2.87836333038858e-05,7.02278278817076e-05
5.65046501129783e-06,1.33796616301146e-05,1.76679086380204e-05,3.66980352794329e-05
1.18321150698282e-05,2.39807700765189e-05,2.69559986624552e-05,6.27688838088023e-05
8.16183208040027e-06,1.85480937986417e-05,1.96533884765376e-05,4.63633143555796e-05
7.48477910170879e-06,1.62877500169802e-05,1.93061979339752e-05,4.30787270526642e-05
5.78208513926594e-06,1.44906056406206e-05,1.74692844213343e-05,3.77419752012208e-05
7.76591187339672e-06,1.25606552661217e-05,1.66607489517952e-05,3.69873160913136e-05
7.61657286725733e-06,1.30047191728687e-05,1.65793089937528e-05,3.72006010338788e-05
6.31671587025638e-06,1.43905044536033e-05,1.75445501801965e-05,3.82517705040563e-05
1.25063778131197e-05,2.14366367049387e-05,2.87634330124234e-05,6.27064475304818e-05
1.01329659023687e-05,2.64929197353875e-05,2.38839790684507e-05,6.05098647062068e-05
5.30840131635573e-06,1.83539586009775e-05,1.95448011974942e-05,4.32071611148274e-05
5.23090435697381e-06,1.52022923935448e-05,1.83485059864329e-05,3.87817027369514e-05
7.37536407777984e-06,1.89594113184548e-05,2.12814980302622e-05,4.76162734264968e-05
1.03341513939653e-05,2.02015293287781e-05,1.97117403195474e-05,5.02474210422908e-05
6.92233164355955e-06,2.48570125008565e-05,3.4402819585577e-05,6.6182163729993e-05
4.86707631250956e-06,2.15641941445753e-05,2.30650829751882e-05,4.94963534322731e-05
5.27172592004731e-06,9.99463106535936e-06,1.31353199125904e-05,2.8401676897997e-05
8.43828086282643e-06,2.06194760390578e-05,2.35301176215412e-05,5.25878745234254e-05
8.14978790476091e-05,9.09435142943933e-05,8.26758058494087e-05,0.000255117199191411
0.000570960321402068,0.00172437544817158,0.002314259293157,0.00460959506273064
0.000173035518331923,0.000623591910180143,0.000530175061621263,0.00132680249013333
0.000745007706247891,0.00173256490638968,0.00120617649463236,0.00368374910726993
0.000369002009178145,0.00162067295329152,0.000926029641037794,0.00291570460350746
0.000375960475343044,0.00124006704559126,0.000930976081160243,0.00254700360209455
0.0004183860712586,0.0015755545540448,0.00102832748912515,0.00302226811442855
0.00033475683784312,0.000472084985780701,0.000474072434052693,0.00128091425767651
0.0010070456522,0.00355648829631641,0.00135153031937296,0.00591506426788938
0.00113136703496149,0.00633733953806218,0.00175261061224651,0.00922131718527018
0.00103116097069474,0.0038818239870398,0.00180728815726949,0.00672027311500403
0.000298134366329182,0.000572778804136367,0.000393337389475432,0.00126425055994098
0.000303903450187401,0.000497042915425736,0.000371697834933093,0.00117264420054623
0.000262227420279337,0.000547773915343395,0.000340880597817313,0.00115088193344004
0.000168563629429225,0.000891368923729461,0.000238201349571976,0.00129813390273066
3.20208768514933e-05,3.45482474913145e-05,6.13084785754011e-05,0.000127877602918209
1.27171970064662e-05,2.8231321515442e-05,3.84284450270349e-05,7.93769635489431e-05
9.914695241497e-06,1.48690818838538e-05,2.73212070774491e-05,5.21049842027999e-05
6.99879332483031e-06,9.02887198450749e-06,1.65668791257349e-05,3.25945444350727e-05
8.44905633316315e-06,1.06076257869313e-05,2.02120700368637e-05,3.92687521569581e-05
4.47910749544793e-06,7.93126685768473e-06,1.70301167437388e-05,2.94404910968715e-05
6.68105847939831e-06,8.18469617670001e-06,1.59287983549736e-05,3.0794553011072e-05
6.86164993265469e-06,7.88004847973912e-06,1.63702663490433e-05,3.11119647614371e-05
4.72488862095513e-06,1.08387034477441e-05,1.46544462199708e-05,3.021803828867e-05
3.73507777714753e-06,9.03781364971228e-06,1.1798158668795e-05,2.45710500956548e-05
4.4801439731738e-06,1.08403930167097e-05,1.28915808190836e-05,2.82121178089672e-05
4.63051907101925e-06,1.27832688102703e-05,1.44384392278867e-05,3.18522271091762e-05
4.40934323422059e-06,1.09002665464e-05,1.29632207340024e-05,2.8272830514623e-05
4.04115921110981e-06,1.00048605414161e-05,1.20913723173448e-05,2.61373920698706e-05
3.82775139251292e-06,1.06841931706955e-05,1.19226432906546e-05,2.6434587853863e-05
4.32271557658706e-06,1.0858213864033e-05,1.28415324706119e-05,2.80224619112319e-05
8.49605484484968e-06,1.33872850317891e-05,1.52724788426915e-05,3.71558187193303e-05
5.13194356387033e-06,1.41409715925163e-05,1.47191893413554e-05,3.3992104497742e-05
5.91202024453598e-06,2.23474823737229e-05,1.86540584454586e-05,4.69135610637174e-05
4.18546354639201e-06,1.19192388621857e-05,1.20474938639432e-05,2.81521962725209e-05
4.58122140637521e-06,1.13573792177331e-05,1.1388899749113e-05,2.73275003732213e-05
4.33007490810323e-06,1.05978668827051e-05,1.06278350025414e-05,2.55557767933497e-05
5.40194959806612e-06,1.0088952206047e-05,1.13282625065346e-05,2.68191643106477e-05
1.77060249095757e-05,2.39172402617282e-05,2.77457273676836e-05,6.93689925389875e-05
2.42065346890659e-05,1.90545511008856e-05,3.35588695880973e-05,7.68199553780487e-05
1.05315123853841e-05,7.47596117133886e-06,1.61947338145059e-05,3.42022073712289e-05
4.53537852830282e-06,3.99234506294619e-06,1.10274730687623e-05,1.95551966600114e-05
8.8123458138833e-06,5.95578706716653e-06,1.23112222124638e-05,2.70793550935136e-05
4.47202544883493e-06,3.47389993618701e-06,1.09850345375595e-05,1.89309599225815e-05
4.06920297263802e-06,3.31582785516258e-06,1.04317237075777e-05,1.78167545353783e-05
4.1717429404429e-06,3.59247584270416e-06,1.05667047567461e-05,1.83309235398931e-05
3.59205093186623e-06,3.15300255845436e-06,9.37689054784084e-06,1.61219440381614e-05
5.92139638173501e-06,4.32854667063157e-06,1.08971402577173e-05,2.11470833100839e-05
5.06057267349882e-06,3.34984017288299e-06,1.03013781388705e-05,1.87117909852523e-05
8.50012984476064e-06,8.47685822761781e-06,1.4647329364787e-05,3.16243174371654e-05
8.29131052124905e-06,5.2611533125848e-06,1.32400367779948e-05,2.67925006118287e-05
8.57592128128853e-06,3.92998462373638e-06,1.15786847900531e-05,2.4084590695078e-05
6.36745155752371e-06,3.2743150565465e-06,1.00209090999531e-05,1.96626757140233e-05
9.62793141881671e-06,5.1665756910416e-06,1.26826710905636e-05,2.74771782004219e-05
7.28706599287316e-06,3.5890511805629e-06,1.04128426242744e-05,2.12889597977105e-05
8.17474545441812e-06,4.20387474935176e-06,1.11974471571022e-05,2.3576067360872e-05
1.10527943889584e-05,6.09239027206472e-06,1.14991280190846e-05,2.86443126801077e-05
6.66943708458632e-06,4.01327015321466e-06,1.0280734878926e-05,2.0963442116727e-05
6.52073553914583e-06,3.66612369199424e-06,1.01389168738395e-05,2.03257761049796e-05
6.24253707723731e-06,3.49584988427662e-06,1.02946369210194e-05,2.00330238825334e-05
6.70736492570794e-06,3.70231315651145e-06,1.03690645506543e-05,2.07787426328737e-05
5.74725561117136e-06,3.19003301499387e-06,1.03743178264622e-05,1.93116064526274e-05
6.83109881624336e-06,4.9391269525477e-06,1.21625956262479e-05,2.39328213950389e-05
4.9262481544792e-06,3.75788872110697e-06,1.09590449806432e-05,1.96431818562294e-05
6.67909623870463e-06,7.06259707074164e-06,1.38052182091281e-05,2.75469115185744e-05
6.53767400904762e-06,4.89552760136478e-06,1.14873174297976e-05,2.292051904021e-05
6.28537092847631e-06,5.02528592992467e-06,1.07766945267092e-05,2.20873513851102e-05
6.12223028897639e-06,4.23966935417716e-06,1.12412348240515e-05,2.16031344672051e-05
9.03651448629692e-06,6.542497206236e-06,1.36088771877212e-05,2.91878888802542e-05
6.60298190714861e-06,4.54895144833531e-06,1.04323230944375e-05,2.15842564499214e-05
4.37477138737506e-06,3.45344717615733e-06,9.64106829279901e-06,1.74692868563314e-05
3.93699398571365e-06,3.22875229657305e-06,9.56762549498254e-06,1.67333717772692e-05
6.03836355138763e-06,4.01383177344571e-06,1.17176794663095e-05,2.17698747911428e-05
5.15740292544429e-06,3.62609881041337e-06,1.06953335769503e-05,1.9478835312808e-05
5.56434081185246e-06,3.989371269569e-06,1.03442798761224e-05,1.98979919575438e-05
5.49693680099946e-06,4.42957699257122e-06,1.0380520406369e-05,2.03070341999397e-05
5.67411588344748e-06,4.36133547727781e-06,1.13876727235046e-05,2.14231240842299e-05
5.8356464871177e-06,4.398891976716e-06,1.03561200268107e-05,2.05906584906444e-05
6.35669488808079e-06,4.41592431669264e-06,1.01944933917797e-05,2.09671125965531e-05
9.58541092246693e-06,5.86589320218337e-06,1.45020232722362e-05,2.99533273968865e-05
8.13182920967019e-06,4.26866055024777e-06,1.17754623016456e-05,2.41759520615636e-05
8.19037565585737e-06,4.16207602555476e-06,1.18080638321619e-05,2.4160515513574e-05
7.63498161591393e-06,3.7314961470173e-06,1.18638684569524e-05,2.32303462198837e-05
9.03914294192925e-06,6.80597889962489e-06,1.40246157922606e-05,2.98697376338148e-05
5.53548765143807e-06,3.33835746011479e-06,1.12252865396892e-05,2.00991316512421e-05
6.96112263227218e-06,3.79238508008138e-06,1.08467041084398e-05,2.16002118207934e-05
5.65431103004319e-06,3.48204473757575e-06,1.12608615649509e-05,2.03972173325698e-05
5.28958780753283e-06,3.71913283966299e-06,1.11850604819274e-05,2.01937811291232e-05
6.77197491132352e-06,4.15463424444866e-06,1.17355241041934e-05,2.26621332599655e-05
5.61296883082966e-06,3.49261871164914e-06,1.1762232205223e-05,2.08678197477018e-05
5.39009943574073e-06,3.43751456148695e-06,1.14818369135277e-05,2.03094509107554e-05
5.09603398262254e-06,3.38628829076276e-06,1.0915012608972e-05,1.93973348823573e-05
6.62524096583127e-06,4.19594846262661e-06,1.2260535538375e-05,2.30817249668329e-05
1.16808378604465e-05,6.82093785283456e-06,1.48495153411085e-05,3.33512910543896e-05
7.85896616468207e-06,5.19784272461338e-06,1.34701241409285e-05,2.65269330302239e-05
9.11390116262468e-06,6.43216887900415e-06,1.26894137931795e-05,2.82354838348083e-05
7.00440375401499e-06,4.22254381779601e-06,1.16949193529092e-05,2.29218669247202e-05
5.31521415584263e-06,3.64357370462999e-06,1.11517088554924e-05,2.01104967159651e-05
5.43375514386807e-06,5.56006146493969e-06,1.2607305762348e-05,2.36011223711558e-05
6.66663365679702e-06,4.30994939394749e-06,1.17160979033162e-05,2.26926809540607e-05
4.86508158140847e-06,3.8228283751757e-06,1.16790983276613e-05,2.03670082842454e-05
4.52380313754446e-06,3.54523462301829e-06,1.09304211943001e-05,1.89994589548629e-05
4.62443698943132e-06,3.45487770133571e-06,1.0642722216009e-05,1.8722036906776e-05
6.8041678705611e-06,4.6873155022447e-06,1.18449162886042e-05,2.333639966141e-05
7.18391251828573e-06,4.81873068337504e-06,1.1551208831569e-05,2.35538520332298e-05
8.18860580095162e-06,4.43642233178344e-06,1.20346721136141e-05,2.46597002463492e-05
8.68005596920906e-06,4.23193291173029e-06,1.1185289044863e-05,2.40972779258024e-05
7.61300964386699e-06,4.24341189171964e-06,1.13468900847077e-05,2.32033116202944e-05
7.27999009246189e-06,3.9516505730854e-06,1.11753739801929e-05,2.24070146457402e-05
9.04566266521981e-06,5.49339326094651e-06,1.34269848949005e-05,2.79660408210668e-05
1.33833567412232e-05,5.59310203703817e-06,1.38612743213298e-05,3.28377330995911e-05
1.30247334044521e-05,6.55626629607193e-06,1.29318886671139e-05,3.25128883676379e-05
7.4231453274666e-06,4.70638964218038e-06,1.11250922730582e-05,2.32546272427052e-05
9.28112430421289e-06,5.97628276926154e-06,1.19142587307692e-05,2.71716658042436e-05
8.42683839332618e-06,4.57058156883752e-06,1.2274276362066e-05,2.52716963242297e-05
1.00538553956125e-05,4.62106067034805e-06,1.18390816163473e-05,2.65139976823079e-05
1.00894475519079e-05,4.21695120943517e-06,1.11481839608898e-05,2.54545827222328e-05
8.8734932769686e-06,4.2760553461871e-06,1.1078312232263e-05,2.42278608554187e-05
1.03551368198003e-05,4.20315518957486e-06,1.14029987102849e-05,2.59612907196601e-05
7.53905362685468e-06,5.30984527301154e-06,1.24723885282913e-05,2.53212874281576e-05
7.58035539386328e-06,4.89642948314653e-06,1.12251886979444e-05,2.37019735749543e-05
9.04712848812117e-06,5.00576515156934e-06,1.2071194196097e-05,2.61240878357875e-05
8.77638820671653e-06,4.82253957301525e-06,1.04519080340523e-05,2.40508358137841e-05
1.78458479489608e-05,9.76820887434404e-06,1.42103530071487e-05,4.18244098304535e-05
1.01766821310674e-05,5.43716705667913e-06,1.13116423373737e-05,2.69254915251202e-05
6.23471078891668e-06,3.49264747415443e-06,9.77721227813429e-06,1.95045705412054e-05
6.60865842105243e-06,3.69710953331612e-06,1.03586517071585e-05,2.06644196615271e-05
8.73340606571289e-06,5.10179687682505e-06,1.06158260228647e-05,2.44510289654027e-05
6.74217568652605e-06,3.78049294012763e-06,1.0466623556021e-05,2.09892921826747e-05
8.22088476380462e-06,4.64432395583344e-06,1.27277625135727e-05,2.55929712332108e-05
7.5164318308904e-06,4.38581836383306e-06,1.06354931275765e-05,2.25377433223e-05
7.77259567308271e-06,5.6595451853928e-06,1.19528178196378e-05,2.53849586781133e-05
1.33284107114872e-05,6.4381560522022e-06,1.28286167172592e-05,3.25951834809486e-05
7.01645877735607e-06,3.68080988646837e-06,1.02920516786417e-05,2.09893203424662e-05
7.05311199722077e-06,3.75241680426951e-06,1.07212215592293e-05,2.15267503607196e-05
7.47178285442424e-06,3.72658605485549e-06,1.01070356775573e-05,2.13054045868371e-05
7.21025598194476e-06,3.84084469137991e-06,1.03991502280643e-05,2.1450250901389e-05
1.1537913141959e-05,4.446858968974e-06,1.10136635108324e-05,2.69984356217654e-05
8.91540906092293e-06,4.14125752233006e-06,1.09393062762682e-05,2.39959728595212e-05
8.04803954161089e-06,3.83573840694189e-06,9.86325551702959e-06,2.17470334655824e-05
1.4050248336124e-05,1.00142364414477e-05,1.89354257821551e-05,4.29999105597268e-05
3.96025930881498e-05,5.56832514065474e-05,4.64579817642627e-05,0.00014174382625896
5.83456907252041e-06,4.25107903802124e-06,1.39891632469178e-05,2.40748113574595e-05
9.77433033598552e-06,7.36088628610224e-06,1.8021661399849e-05,3.51568780219368e-05
1.25765372829553e-05,8.70034568693978e-06,1.85284552326872e-05,3.98053382025823e-05
7.65542561566765e-06,4.70017226749087e-06,1.60179392347802e-05,2.83735371179387e-05
6.13902502604114e-06,4.20891973892118e-06,1.35588152546321e-05,2.39067600195944e-05
6.76942775272995e-06,4.25977080103712e-06,1.2705834628773e-05,2.37350331825401e-05
6.26567979872625e-06,4.38054939038036e-06,1.30654788753352e-05,2.37117080644418e-05
5.26350202094929e-06,3.71076968505517e-06,1.12229994178737e-05,2.01972711238782e-05
5.47114736998654e-06,3.8350535371478e-06,1.14806949621011e-05,2.07868958692354e-05
7.90236331194227e-06,5.94903459408127e-06,1.29632353081456e-05,2.68146332141692e-05
1.00252349502544e-05,6.414923463079e-06,1.3010741022226e-05,2.94508994355593e-05
6.26361848234099e-06,4.67425160663126e-06,1.25330134525822e-05,2.34708835415545e-05
5.82241818945388e-06,4.21347593290412e-06,1.18547255187561e-05,2.18906196411141e-05
5.81955686130731e-06,5.23281210370342e-06,1.17831238827018e-05,2.28354928477125e-05
4.76107438968063e-06,3.59226431294114e-06,1.01974912108536e-05,1.85508299134754e-05
8.41499684353072e-06,5.31083076486802e-06,1.4038739577756e-05,2.77645671861547e-05
5.36498653772092e-06,3.59792631597837e-06,9.83692242636327e-06,1.87998352800626e-05
7.24765363244979e-06,5.07300645261656e-06,1.1792201265566e-05,2.41128613506324e-05
4.61329622291869e-06,3.53318253755401e-06,9.35246137917735e-06,1.74989401396501e-05
9.9313794427333e-06,5.98633631763752e-06,1.24146650083256e-05,2.83323807686964e-05
7.37097861437975e-06,5.00345224148924e-06,1.24740157840173e-05,2.48484466398863e-05
4.91575419311921e-06,3.47600837575013e-06,1.0649485932544e-05,1.90412485014134e-05
7.89035707747837e-06,4.37924970181418e-06,1.12760021485007e-05,2.35456089277933e-05
6.30919627115586e-06,4.24407916343143e-06,1.021328613385e-05,2.07665615684373e-05
6.14975949995127e-06,4.47603288885118e-06,1.01855085694145e-05,2.0811300958217e-05
7.7944241227147e-06,5.04507138863347e-06,1.23153053899894e-05,2.51548009013376e-05
7.9265675949636e-06,5.78678742626441e-06,1.17750755613834e-05,2.54884305826114e-05
8.22682382219021e-06,5.15560644551721e-06,1.17382630574454e-05,2.51206933251528e-05
9.35475249980116e-06,6.19628491220166e-06,1.22618383116322e-05,2.7812875723635e-05
8.28064361035936e-06,6.09974887637133e-06,1.12071925180342e-05,2.55875850047649e-05
8.35546555504561e-06,5.15819165043109e-06,1.09994345885304e-05,2.45130917940071e-05
5.75000810718324e-06,4.10790859609254e-06,1.03768470020986e-05,2.02347637053744e-05
9.95551069074161e-06,4.81212632068128e-06,1.21893509950181e-05,2.6956988006441e-05
9.21441801399676e-06,5.40253286449686e-06,1.27035758326038e-05,2.73205267110974e-05
6.72651247769714e-06,3.93505989339831e-06,1.07969423635323e-05,2.14585147346277e-05
8.91426425113176e-06,6.86070906147307e-06,1.18692977097271e-05,2.7644271022332e-05
8.91823794361061e-06,6.39422285116667e-06,1.08996008011659e-05,2.62120615959432e-05
5.59997516875029e-06,3.36180256102871e-06,9.77743336662088e-06,1.87392110963999e-05
6.83474567679135e-06,6.01194226428216e-06,1.19312156330409e-05,2.47779035741144e-05
4.8862001151185e-06,3.22596982044213e-06,1.01328871576214e-05,1.82450570931821e-05
6.78720447821705e-06,4.6242061483837e-06,1.09800373723735e-05,2.23914479989742e-05
6.60872687597254e-06,4.84249915343304e-06,1.08923152469606e-05,2.23435412763662e-05
4.64026344606447e-06,3.33227092215089e-06,9.7355618472352e-06,1.77080962154506e-05
3.76868099713087e-06,2.7372840861699e-06,8.63815522953524e-06,1.5144120312836e-05
3.93714091316343e-06,2.76634103824855e-06,8.51349627056711e-06,1.52169782219791e-05
7.54276334321793e-06,5.66956912774437e-06,1.17535580334053e-05,2.49658905043676e-05
