potencia_x,potencia_y,potencia_z,potencia_total_xyz
0.000106734772968773,0.000481331662636414,0.000737110531680975,0.00132517696728616
7.93593192416002e-05,5.26998304822067e-05,4.36636001021392e-05,0.000175722749825946
3.7885846895658e-05,3.58015342430319e-05,4.2668965636482e-05,0.000116356346775172
0.000177798883995097,0.000265079802950347,0.000119713724790423,0.000562592411735867
3.74215472074512e-05,3.80398538857313e-05,4.55480283413462e-05,0.000121009429434529
0.000103499905405308,0.000188008266410493,7.52584884794559e-05,0.000366766660295257
4.30629906284703e-05,6.46071433341964e-05,8.46842059924788e-05,0.000192354339955146
7.44054913184894e-05,4.2704240461384e-05,4.97205962157697e-05,0.000166830327995643
4.84723515274017e-05,4.0921570457672e-05,3.830758498918e-05,0.000127701506974254
6.41517720302815e-05,0.00010415642841431,6.57947173078547e-05,0.000234102917752446
0.000241756550168885,0.00062853282445868,0.000214718367459865,0.00108500774208743
0.000397795402554062,0.00131023289001571,0.000404885955781186,0.00211291424835096
0.000465259029119593,0.00145173530301921,0.000568899577482895,0.0024858939096217
4.72863671059761e-05,3.18025361978842e-05,3.53941435208034e-05,0.000114483046824664
0.00017967662364128,0.000426164729307393,0.000160435747787526,0.000766277100736198
0.00018192275258724,0.000629089090518236,0.000204641989562617,0.00101565383266809
0.000224566239549402,0.000338196453548948,0.000196743648611865,0.000759506341710216
0.000195103191772839,0.000620545339008562,0.000211839339750272,0.00102748787053167
0.00012389097748181,0.000217453470358732,8.2375061369241e-05,0.000423719509209783
8.3327720822235e-05,0.000135052942332805,4.70069187345895e-05,0.00026538758188963
0.000152640295078654,0.000447543816182829,0.000164462806607593,0.000764646917869075
0.0001696409465754,0.00035871092654674,0.000171359467581418,0.000699711340703557
4.40714325529792e-05,2.25026065029302e-05,4.16468721784288e-05,0.000108220911234338
0.000101879149791259,0.000141367825851629,8.06518795777729e-05,0.000323898855220661
9.21600964226297e-05,0.000145562576946089,8.45480142510107e-05,0.000322270687619729
2.55896365537654e-05,2.02108065003171e-05,2.78703103119526e-05,7.36707533660351e-05
4.9370477067444e-05,6.0216793798022e-05,3.97835680770912e-05,0.000149370838942557
6.06592255292323e-05,0.000101233167325097,5.59241404250181e-05,0.000217816533279347
9.42430982765293e-05,0.000144157394142834,0.00010772857386712,0.000346129066286483
3.67071110169262e-05,1.58060591271201e-05,3.92691747372764e-05,9.17823448813227e-05
8.80522239085503e-06,6.5295449642057e-06,1.81333338394526e-05,3.34681011945133e-05
9.82630613424448e-06,9.97647627582642e-06,2.09407436111516e-05,4.07435260212225e-05
1.12875618913641e-05,1.10614121396014e-05,2.0305487189617e-05,4.26544612205825e-05
9.726612703872e-06,6.22643650493213e-06,1.5878352151881e-05,3.18314013606851e-05
9.84207126132583e-06,7.65942238723547e-06,1.64605759490528e-05,3.39620695976141e-05
1.12313682845246e-05,7.32502949641442e-06,1.66330071253413e-05,3.51894049062803e-05
2.04758046263233e-05,1.02605894762534e-05,1.78924882075539e-05,4.86288823101307e-05
1.02062130134953e-05,7.59963130110361e-06,1.97313939735374e-05,3.75372382881363e-05
6.55633629713685e-06,6.48024646751079e-06,1.4790060800673e-05,2.78266435653206e-05
5.09329559696228e-05,1.72287630366069e-05,4.41041082150555e-05,0.000112265827221285
6.526469820872e-06,5.86875339220893e-06,1.6178753462458e-05,2.85739766755389e-05
7.49283883165107e-06,4.57190551756489e-06,1.3839146696331e-05,2.59038910455469e-05
1.09259885625896e-05,8.38739785033929e-06,1.94868810252564e-05,3.88002674381853e-05
1.44977365501796e-05,2.01207408034622e-05,4.62119053996967e-05,8.08303827533385e-05
8.39000827432797e-06,6.0258205201344e-06,1.57126674245591e-05,3.01284962190215e-05
2.64818102629826e-05,2.08399024674721e-05,2.72503135192718e-05,7.45720262497265e-05
1.17612473176487e-05,8.23428708043896e-06,1.57505081851119e-05,3.57460425831996e-05
1.2740793550182e-05,1.58165364217115e-05,2.60800933063009e-05,5.46374232781945e-05
6.11474558605429e-06,9.42036707130444e-06,2.60420848444127e-05,4.15771975017714e-05
3.17275894752843e-05,1.4992646304279e-05,2.96751783456794e-05,7.63954141252427e-05
6.98941297542381e-06,5.34424054746198e-06,1.55016478617492e-05,2.7835301384635e-05
8.27436958329224e-06,7.36229467681147e-06,1.64360593456275e-05,3.20727236057312e-05
1.09043616888663e-05,8.41058474266888e-06,1.92741129092398e-05,3.85890593407749e-05
1.47138045809225e-05,1.09571425369682e-05,2.08485931526492e-05,4.65195402705399e-05
8.23655005969977e-06,5.89008951140284e-06,1.70222543854925e-05,3.11488939565951e-05
2.00560285986235e-05,1.47177481972431e-05,2.14287392708107e-05,5.62025160666773e-05
5.54065740060845e-06,4.82316217893257e-06,1.14798375512512e-05,2.18436571307922e-05
2.22756938628127e-05,2.38397281598091e-05,3.21331077554076e-05,7.82485297780294e-05
4.17386129688658e-06,3.27868266441487e-06,9.73707906348647e-06,1.71896230247879e-05
5.48044767805826e-06,4.58071525374763e-06,1.37124544026078e-05,2.37736173344137e-05
4.79054377126611e-06,4.0610290145157e-06,1.16898858191367e-05,2.05414586049185e-05
4.83387223392233e-06,3.80742760636288e-06,1.09714517715546e-05,1.96127516118398e-05
6.40515305123873e-06,5.4225832275142e-06,1.4359463422377e-05,2.61871997011299e-05
5.90242026118298e-06,6.39389844861812e-06,1.36741532100644e-05,2.59704719198655e-05
5.15363762120631e-05,7.33983798936349e-05,4.37785512172364e-05,0.000168713307322934
1.10869683243048e-05,9.48707539651766e-06,2.66553927563903e-05,4.72294364772128e-05
1.14104506750602e-05,8.43047396357058e-06,2.34848166602141e-05,4.33257412988449e-05
0.000160547421946457,0.000516972495269373,0.000156861361701796,0.000834381278917625
0.000245736772173684,0.000613663661374467,0.000275471445437414,0.00113487187898556
0.000234068523789724,0.000390973025548452,0.000213103743006712,0.000838145292344888
0.000160621287273095,0.000676576592487639,0.00019299675581282,0.00103019463557355
7.81300333410762e-05,5.80966058310121e-05,7.517311960177e-05,0.000211399758773858
3.17659507052697e-05,2.66952759543116e-05,3.4614492180256e-05,9.30757188398374e-05
0.000116828976801609,0.00029710132938699,0.000120210613039539,0.000534140919228138
0.000425198714418747,0.00151206383015132,0.000378929589099067,0.00231619213366913
0.000437826525171153,0.00174320193316775,0.000530018631836383,0.00271104709017529
0.000208364552182941,0.000381399668916957,0.000184935338889039,0.000774699559988937
6.9037902224244e-05,9.57467784232329e-05,6.40886779298225e-05,0.000228873358577299
0.000245289026422999,0.000682170926153349,0.000203353595098053,0.0011308135476744
7.7194047793608e-05,0.000113190082243757,5.75171904259097e-05,0.000247901320463275
1.63068497937968e-05,1.08542137382434e-05,2.02508864604694e-05,4.74119499925096e-05
1.896347297827e-05,1.21974705913311e-05,2.39351225014963e-05,5.50960660710974e-05
3.95639428418948e-05,1.74012294842677e-05,3.41358196189228e-05,9.11009919450853e-05
5.54593232660212e-05,7.55337955553186e-05,5.32178825109642e-05,0.000184211001332304
0.000113999349312982,0.000227592384169796,0.000109624205205531,0.000451215938688309
0.000110659072274417,0.000235971225346097,0.000125401585062882,0.000472031882683396
6.4321472498818e-05,3.9273809733595e-05,6.10714284106508e-05,0.000164666710643064
0.000100701961249256,0.000178965775308332,0.00011603240061021,0.000395700137167798
3.26241968668778e-05,3.07310985984376e-05,3.5092075103102e-05,9.84473705684174e-05
1.13268433791499e-05,7.82722077667496e-06,1.75354778374026e-05,3.66895419932275e-05
6.92820196457727e-06,6.64295065753215e-06,1.63208398494784e-05,2.98919924715878e-05
6.93775613609165e-06,6.73743226416814e-06,1.40003936192333e-05,2.76755820194931e-05
9.3173422367994e-06,8.30294912467133e-06,1.48491222172616e-05,3.24694135787323e-05
3.54734171260033e-05,2.59291522160415e-05,3.89221810291981e-05,0.000100324750371243
1.04924883700301e-05,8.8570210057626e-06,1.59133303981261e-05,3.52628397739188e-05
9.13871562084712e-06,9.46561634438876e-06,1.58627415295533e-05,3.44670734947892e-05
3.91839728158379e-06,3.58011921842786e-06,9.06170682273145e-06,1.65602233227431e-05
2.90262620352768e-05,4.58200484429902e-05,7.16989081165987e-05,0.000146545218594866
1.23073099536754e-05,1.10464796179014e-05,1.99639278197295e-05,4.33177173913063e-05
1.35154133390476e-05,8.75354373521591e-06,1.22990922771882e-05,3.45680493514518e-05
6.70300001831583e-06,4.88828366293082e-06,1.15666425042974e-05,2.31579261855441e-05
7.54324581107323e-06,6.74287477267583e-06,1.216703454409e-05,2.6453155127839e-05
3.11395934819155e-06,2.94272789778829e-06,7.87885031822475e-06,1.39355375642046e-05
3.43055092687433e-06,2.79341306899197e-06,8.02272883684489e-06,1.42466928327112e-05
3.77323168767515e-06,3.36669559924733e-06,8.5311010346434e-06,1.56710283215659e-05
4.10118952060583e-06,3.57304109467539e-06,8.0150722781084e-06,1.56893028933896e-05
3.23385046771684e-06,2.96721361229819e-06,7.30233613510556e-06,1.35034002151206e-05
3.4961067255964e-06,2.94513776838178e-06,7.39323205169685e-06,1.3834476545675e-05
5.77443113710344e-06,5.00411099633333e-06,1.0734726096817e-05,2.15132682302538e-05
4.87247227884384e-06,4.36095919851307e-06,1.03617310460405e-05,1.95951625233974e-05
6.80941644473428e-06,5.93892179163345e-06,1.07193592008592e-05,2.34676974372269e-05
4.3641302858787e-06,4.93820328378053e-06,1.12700400384363e-05,2.05723736080955e-05
4.15394326482195e-06,6.96683134329541e-06,1.5697820997012e-05,2.68185956051294e-05
9.9630442772363e-05,7.95629776817046e-05,8.48451771455746e-05,0.000264038597599642
0.000315458082888092,0.000181376486627454,0.000217471554517716,0.000714306124033262
1.64480946697267e-05,2.04517757678167e-05,3.29941437588322e-05,6.98940141963756e-05
2.36268913205017e-05,1.71244268297328e-05,2.97593558520048e-05,7.05106740022392e-05
5.29221689267286e-06,9.28840530972084e-06,1.61757282729626e-05,3.07563504753563e-05
6.68018516433605e-06,5.26841264409467e-06,1.29594357892613e-05,2.49080335976921e-05
5.93846723564809e-06,8.84781157261564e-06,1.42507511814756e-05,2.90370299897394e-05
3.55456891646569e-06,3.20936366400368e-06,8.53494555527062e-06,1.529887813574e-05
3.34308182246e-06,3.11597542800131e-06,8.35079813083542e-06,1.48098553812967e-05
3.52228815544388e-06,3.38613327946335e-06,8.63498223837801e-06,1.55434036732852e-05
3.09619409618042e-06,2.95650344135257e-06,7.98009666055115e-06,1.40327941980841e-05
3.62292974947745e-06,3.39882504027845e-06,8.07083985321584e-06,1.50925946429717e-05
4.30690182985186e-06,4.64478783291601e-06,9.59692060073541e-06,1.85486102635033e-05
9.54649300819609e-06,1.36957792084399e-05,1.31211365856697e-05,3.63634088023057e-05
6.12105256075041e-06,7.50177930822457e-06,1.34930140053779e-05,2.71158458743529e-05
3.77346783078209e-06,5.20962589924004e-06,1.01783781245669e-05,1.91614718545891e-05
1.29781635354621e-05,7.76662464232809e-06,1.31350588930643e-05,3.38798470708545e-05
3.65337007519898e-05,1.72749170299754e-05,3.02603863205387e-05,8.4069004102504e-05
6.90971914272803e-05,2.9683980328916e-05,4.2287970801829e-05,0.000141069142558025
1.33592648933839e-05,7.94008524457237e-06,1.99032403224962e-05,4.12025904604525e-05
7.55735234386155e-06,1.05222467397915e-05,2.11601638791103e-05,3.92397629627634e-05
7.55108478350458e-06,7.42042758928948e-06,1.87477955602756e-05,3.37193079330697e-05
7.19657438839998e-06,5.87058310023107e-06,1.85069083953744e-05,3.15740658840054e-05
2.71943021228823e-05,2.03279845230844e-05,2.56252070414227e-05,7.31474936873893e-05
3.73349216949429e-06,3.17345007450226e-06,9.10460853737556e-06,1.60115507813721e-05
9.97027980408388e-06,9.2915362698219e-06,1.70922039058383e-05,3.63540199797441e-05
2.19783188008375e-05,1.73058578686889e-05,2.48645284061181e-05,6.41487050756446e-05
8.81243155655148e-06,7.24032896203571e-06,1.08328349676246e-05,2.68855954862118e-05
4.22137929995922e-06,3.09893985356241e-06,8.72318237371425e-06,1.60435015272359e-05
3.30720857270554e-06,3.18626266517787e-06,9.36512247566338e-06,1.58585937135468e-05
3.3274534745441e-06,2.80649798409329e-06,8.34631565139602e-06,1.44802671100334e-05
3.1159264621479e-06,3.76817872678988e-06,8.850686619813e-06,1.57347918087508e-05
2.30842197019886e-05,2.33643825141154e-05,2.13611351356698e-05,6.78097373517738e-05
4.74348727408703e-06,3.53403248743715e-06,9.91721344191323e-06,1.81947332034374e-05
5.45708423039469e-05,2.70549768207282e-05,3.80214936360915e-05,0.000119647312760767
1.09248220163834e-05,1.20573089237196e-05,1.48988410121215e-05,3.78809719522246e-05
3.57184686872362e-06,3.92747819480644e-06,1.33967820588844e-05,2.08961071224144e-05
4.4130641206992e-05,2.4171233603139e-05,3.84832132264802e-05,0.000106785088036611
1.51842939003314e-05,1.32851762158789e-05,2.0635713447062e-05,4.91051835632723e-05
9.02446296499273e-06,9.91479625065694e-06,1.58844994030952e-05,3.48237586187449e-05
7.32753182312328e-06,7.21889628491081e-06,1.60192261261027e-05,3.05656542341368e-05
9.43886656372953e-06,1.8123024515017e-05,1.83285712016332e-05,4.58904622803797e-05
4.65146202938595e-06,6.15612373992965e-06,1.46331713563775e-05,2.54407571256931e-05
1.62393683331247e-05,1.44804947070491e-05,1.77909969798518e-05,4.85108600200255e-05
7.05759754048693e-06,7.82869304967971e-06,1.64385380597879e-05,3.13248286499545e-05
4.34281764016403e-06,5.1602962161945e-06,1.15325543555131e-05,2.10356682118717e-05
3.49399093727401e-06,3.41611744565806e-06,8.39985763828003e-06,1.53099660212121e-05
3.17915288058935e-06,3.23818575835058e-06,8.67784771955585e-06,1.50951863584958e-05
4.33536152215969e-05,1.82267695072271e-05,4.21533614378743e-05,0.000103733746166698
4.77948793216048e-06,4.21448773832275e-06,9.46368490575024e-06,1.84576605762335e-05
6.43590293865221e-06,4.5303235971864e-06,9.49028548641422e-06,2.04565120222528e-05
4.82505828408755e-05,9.7339950914114e-05,0.000194281253936485,0.000339871787691474
4.39673992983022e-06,3.65501734921923e-06,8.92267090768556e-06,1.6974428186735e-05
3.81628834749609e-06,3.67630837516064e-06,8.54518439188119e-06,1.60377811145379e-05
3.47093686099512e-06,3.30353454179663e-06,9.17952561739506e-06,1.59539970201868e-05
4.6178538724785e-06,5.17025204896511e-06,1.13922207231282e-05,2.11803266445718e-05
5.75749021489474e-05,3.80429191648951e-05,5.18478676474693e-05,0.000147465688961312
5.70309946037478e-06,3.99688121523628e-06,1.07421711027555e-05,2.04421517783666e-05
3.59796075875123e-05,1.10354406581064e-05,1.45926769723348e-05,6.16077252179535e-05
7.18157478099946e-06,6.69750100127806e-06,1.21048259988717e-05,2.59839017811492e-05
4.27540368840487e-05,2.35796140849675e-05,3.586261791304e-05,0.000102196268882056
4.27601313095549e-05,3.07098294563435e-05,4.69315264225315e-05,0.00012040148718843
4.27262588404667e-06,3.49274580454638e-06,9.4485487982673e-06,1.72139204868603e-05
1.08283248446165e-05,7.96183901621865e-06,1.37139390152209e-05,3.2504102876056e-05
3.43552788637543e-06,3.02808311677863e-06,8.79252158799889e-06,1.52561325911529e-05
7.12416069956337e-06,6.53231064445067e-06,1.52858228623356e-05,2.89422942063496e-05
1.97087951667618e-05,1.21631755309662e-05,3.17201921509063e-05,6.35921628486343e-05
2.84584751807069e-05,2.35104154733224e-05,2.35231907843304e-05,7.54920814383596e-05
0.000163573130181914,0.000212371299144394,0.0002652870240315,0.000641231453357808
4.4557724296069e-05,4.01883603564069e-05,6.46319408897473e-05,0.000149378025542223
0.000190773111483563,0.000257994995315494,0.000385164664389256,0.000833932771188313
0.000156375601890628,0.000290771576072728,0.000180680130444129,0.000627827308407485
4.6328360071756e-05,3.98039404554853e-05,7.44530185489743e-05,0.000160585319076216
1.41630062866467e-05,1.77989094525745e-05,3.01130136816112e-05,6.20749294208324e-05
4.26913053070324e-05,2.58371631339491e-05,4.41735092918384e-05,0.00011270197773282
1.05249786481661e-05,1.37652324632579e-05,2.26683259013759e-05,4.69585370127999e-05
6.52271604798509e-06,8.83853902735609e-06,1.64131841420698e-05,3.17744392174109e-05
6.23240501731219e-06,9.34972853874652e-06,1.58579584274708e-05,3.14400919835295e-05
1.13132651199533e-05,2.31468045533549e-05,3.64699627385259e-05,7.0930032411834e-05
5.5577469031523e-06,7.728837358775e-06,1.39627252831407e-05,2.7249309545068e-05
5.65115212310632e-06,7.51773285329453e-06,1.38747111009015e-05,2.70435960773023e-05
4.97719163590236e-05,6.05771567443935e-05,5.44240338758436e-05,0.000164773106979261
3.57922415836809e-05,4.66923837950262e-05,5.29867422504021e-05,0.000135471367629109
2.32906070012816e-05,1.58666611799183e-05,2.50907808143219e-05,6.42480489955218e-05
2.12879611499774e-05,1.83868003414814e-05,3.35739513321105e-05,7.32487128235693e-05
2.88376604924519e-05,4.43057450325553e-05,5.86657541863372e-05,0.000131809159711344
1.73499615562159e-05,4.01377807718038e-05,4.46762357377144e-05,0.000102163978065734
2.25050103843513e-05,3.89357783939482e-05,3.76845404259469e-05,9.91253292042464e-05
1.40023717041728e-05,3.80928662763563e-05,3.08777910550045e-05,8.29730290355335e-05
2.5004076591145e-05,3.98525888312362e-05,3.52942079143292e-05,0.00010015087333671
5.16399014845187e-05,2.14695354371769e-05,3.1869624666159e-05,0.000104979061587855
2.79255974562308e-05,1.55858204768234e-05,2.74094441975159e-05,7.09208621305701e-05
5.91325935084673e-05,5.2940149633129e-05,6.34792725125308e-05,0.000175552015654127
3.84275418226719e-05,3.83576181471741e-05,3.75680663374706e-05,0.000114353226307317
1.5003672678475e-05,1.12917512948392e-05,3.24646804202494e-05,5.87601043935637e-05
1.49380445226159e-05,2.26859288036514e-05,6.82697849171339e-05,0.000105893758243401
3.64752011151625e-05,3.389228854526e-05,3.98108137353522e-05,0.000110178303395775
2.33994338888008e-05,2.37772460220411e-05,2.69744573093768e-05,7.41511372202187e-05
4.64683242494855e-05,2.38405438056624e-05,4.49855889921877e-05,0.000115294457047336
1.33400363728563e-05,1.69461788640163e-05,2.75032275367495e-05,5.77894427736221e-05
2.00831426590283e-05,1.79564275321414e-05,2.11562581115579e-05,5.91958283027277e-05
8.01905127485576e-06,1.07829845727784e-05,1.33034406355497e-05,3.21054764831839e-05
9.90948424518052e-06,7.65769143390649e-06,1.56235224877333e-05,3.31906981668203e-05
1.5387966361841e-05,1.59405018546868e-05,1.73494928824551e-05,4.86779610989829e-05
9.93897913127765e-06,1.27891410271894e-05,1.87752683333423e-05,4.15033884918093e-05
1.94497504175156e-05,1.9433786423556e-05,1.99584864646108e-05,5.88420233056824e-05
2.02024851412555e-05,2.34559617721284e-05,2.8665183353783e-05,7.23236302671669e-05
6.38620193296473e-06,9.3163839482171e-06,1.86775732731194e-05,3.43801591543012e-05
6.03694715300235e-05,6.09921348301978e-05,8.27402271771005e-05,0.000204101833537322
2.90728188678141e-05,1.67652439208103e-05,2.34074133672118e-05,6.92454761558362e-05
2.92906229858672e-05,1.74610692363483e-05,2.59700925028906e-05,7.27217847251061e-05
8.04239821919238e-06,7.79571710273608e-06,1.92802616692927e-05,3.51183769912212e-05
5.57307157651687e-06,5.25940694493479e-06,1.69011662455802e-05,2.77336447670319e-05
5.45507168309874e-06,4.93864819498382e-06,1.33430139205738e-05,2.37367337986564e-05
4.99882193840857e-06,4.83882465617109e-06,1.38192792684781e-05,2.36569258630577e-05
4.69222459975598e-06,4.55899655092161e-06,1.2973139726723e-05,2.22243608774005e-05
4.78790114187555e-06,4.37352688176245e-06,1.1818169358726e-05,2.0979597382364e-05
4.86689473496261e-06,4.35537162286128e-06,1.22328952910688e-05,2.14551616488927e-05
4.77266258378443e-06,4.626297877039e-06,1.16273711027924e-05,2.10263315636158e-05
4.86142075707514e-06,4.29431798711065e-06,1.14132061502006e-05,2.05689448943864e-05
4.77993306097962e-06,4.7196787646026e-06,1.15819165873026e-05,2.10815284128848e-05
4.94826173716704e-06,4.31193628441388e-06,1.17701186880529e-05,2.10303167096338e-05
4.8748010711316e-06,4.95185088425432e-06,1.24905053993219e-05,2.23171573547078e-05
4.94004562421332e-06,5.95178773880746e-06,1.35167107810069e-05,2.44085441440276e-05
4.97386460231366e-06,5.94410571067698e-06,1.38478329687704e-05,2.4765803281761e-05
4.31361041826341e-06,5.56130637860494e-06,1.3555220942394e-05,2.34301377392623e-05
5.21899816234574e-06,4.21590358123652e-06,1.14139685704141e-05,2.08488703139964e-05
6.03557482434315e-06,4.0619903122746e-06,1.19527392761948e-05,2.20503044128125e-05
1.5499859483203e-05,1.65976092397075e-05,2.37631542969015e-05,5.5860623019812e-05
2.12976907340756e-05,4.33667265315936e-05,3.05966914123917e-05,9.52611086780608e-05
1.50200705845433e-05,1.01032310174395e-05,1.52427968273244e-05,4.03660984293073e-05
2.66604153450652e-05,4.3369141220569e-05,3.35180664202076e-05,0.000103547622985842
3.40543606473162e-05,4.51752613274553e-05,3.06881054103256e-05,0.000109917727385097
3.7294979241534e-05,2.74427813040615e-05,2.58249413069443e-05,9.05627018525398e-05
3.52558438033516e-05,3.37807626172831e-05,3.26319272179383e-05,0.000101668533638573
2.25170996574498e-05,1.75353654522544e-05,1.83739591955154e-05,5.84264243052196e-05
1.42138118107751e-05,1.57238817618232e-05,1.9802000698696e-05,4.97396942712942e-05
8.64459497387219e-06,6.86888914828253e-06,1.35038973344772e-05,2.90173814566319e-05
4.01538581683366e-05,3.89369154153825e-05,5.62687504252036e-05,0.000135359524008923
1.97139579128993e-05,4.07171324909041e-05,2.87097918008419e-05,8.91408822046453e-05
7.26072064675103e-06,1.02064925459105e-05,1.49868007988175e-05,3.2454013991479e-05
5.50928173703357e-06,6.20699640822501e-06,1.36030435132054e-05,2.53193216584639e-05
5.51545480566717e-06,5.21128419928265e-06,1.1773705409529e-05,2.25004444144788e-05
5.73915362606557e-06,5.2371312883561e-06,1.15418788196531e-05,2.25181637340748e-05
5.05499452623599e-06,5.82731041618555e-06,1.21932121209522e-05,2.30755170633737e-05
5.90181360929524e-06,1.06192552021731e-05,1.49390639126191e-05,3.14601327240875e-05
5.69513504479733e-06,6.94234984220954e-06,1.25418435324079e-05,2.51793284194148e-05
6.23420974336611e-06,9.74789042267029e-06,1.53393253744378e-05,3.13214255404742e-05
5.13410028402716e-06,7.5673903621227e-06,1.26689997364073e-05,2.53704903825571e-05
4.83207624737728e-06,5.32381350963806e-06,1.20026503210738e-05,2.21585400780891e-05
4.74721745333301e-06,8.03993874194399e-06,1.45209687457693e-05,2.73081249410463e-05
1.90595346603077e-05,1.46808579028609e-05,2.20269892962852e-05,5.57673818594537e-05
8.14472760743378e-05,6.24054030318437e-05,8.579609346901e-05,0.000229648772575192
2.07244597140616e-05,8.964913250935e-06,1.59398686940754e-05,4.56292416590719e-05
2.36625771817028e-05,1.16565498002091e-05,2.03557428472027e-05,5.56748698291146e-05
9.96281577711367e-06,4.35208507665221e-06,1.00499807266658e-05,2.43648815804317e-05
9.1144104169639e-06,3.91893883747716e-06,9.32394323399215e-06,2.23572924884332e-05
6.9244425829131e-06,3.81409404513601e-06,9.86373612184532e-06,2.06022727498944e-05
7.14224144321426e-06,3.39953720005466e-06,9.1532091777785e-06,1.96949878210474e-05
1.03692359876764e-05,7.40961514536161e-06,1.26698664308848e-05,3.04487175639228e-05
7.16931528382575e-06,7.00651098670301e-06,1.07935698542135e-05,2.49693961247423e-05
1.37414921677796e-05,1.38258841882057e-05,1.6157236925877e-05,4.37246132818623e-05
4.31213512582275e-06,3.88862901382221e-06,9.53864005058215e-06,1.77394041902271e-05
5.01077839252766e-06,4.92328633171493e-06,9.45092935087963e-06,1.93849940751222e-05
4.90767325073271e-06,5.27004175395002e-06,9.26124214930578e-06,1.94389571539885e-05
4.63065612268903e-06,3.74325552352079e-06,8.98628482473721e-06,1.7360196470947e-05
3.39762475717285e-06,2.76372428329412e-06,8.45250416703193e-06,1.46138532074989e-05
3.34684174903208e-06,2.70623869510659e-06,7.90643284522087e-06,1.39595132893595e-05
3.46858948328545e-06,2.67210935835296e-06,8.63418075230008e-06,1.47748795939385e-05
3.92408373807383e-06,2.83096837443751e-06,9.10487865875301e-06,1.58599307712643e-05
3.43585457619238e-06,2.77786606294035e-06,8.4973258652953e-06,1.4711046504428e-05
3.35486209155397e-06,2.71137124512787e-06,8.27634331661258e-06,1.43425766532944e-05
3.34158573144493e-06,2.72909274749737e-06,7.89712109011727e-06,1.39677995690596e-05
1.22092413897419e-05,1.08234245313007e-05,1.36827216833543e-05,3.67153876043969e-05
1.95483727309375e-05,2.29927367430382e-05,1.96778572006391e-05,6.22189666746148e-05
5.65698137535858e-06,6.22896868931139e-06,1.10825127207121e-05,2.29684627853821e-05
3.15735380144504e-05,1.30902454287188e-05,2.12006617034628e-05,6.58644451466321e-05
1.08840550245243e-05,6.86478915033207e-06,1.10220603726116e-05,2.8770904547468e-05
2.03388025574409e-05,1.55066165302622e-05,1.88671242226269e-05,5.471254331033e-05
5.36878343138838e-06,4.27720756399228e-06,8.61517408410402e-06,1.82611650794847e-05
5.18839404996069e-06,3.98314035500081e-06,9.53829704459148e-06,1.8709831449553e-05
3.91488134475461e-06,3.18592886335054e-06,8.54849446374354e-06,1.56493046718487e-05
1.55645163163968e-05,1.33653079829865e-05,1.86097516499132e-05,4.75395759492965e-05
5.68240021107855e-06,3.43474915375764e-06,9.37707384288768e-06,1.84942232077239e-05
3.94101868825315e-06,3.0980322822421e-06,8.97001799872645e-06,1.60090689692217e-05
3.93920845254177e-06,3.03986437395895e-06,8.76811076035192e-06,1.57471835868526e-05
1.7121299985749e-05,2.43026021646807e-05,2.16000357473994e-05,6.30239378978291e-05
1.313702602883e-05,1.23070239128823e-05,1.53550914522617e-05,4.0799141393974e-05
5.24305803915354e-06,3.1799972440559e-06,9.3802837633301e-06,1.78033390465395e-05
9.82018448597117e-06,7.93576789570194e-06,1.26786340367667e-05,3.04345864184398e-05
3.48292217613454e-06,2.97797985483359e-06,8.48102041581912e-06,1.49419224467872e-05
8.07545458788045e-06,6.75244949065284e-06,1.28899244330942e-05,2.77178285116275e-05
4.3830848373294e-06,3.45648104776075e-06,9.20388788593642e-06,1.70434537710266e-05
4.40315124991899e-06,3.50321797670997e-06,9.29547253900178e-06,1.72018417656307e-05
5.86302745380858e-06,4.49359073035175e-06,1.03255054822996e-05,2.068212366646e-05
4.39480792013747e-06,3.03564561602001e-06,8.95564759406401e-06,1.63861011302215e-05
7.71314154451275e-06,4.71689615796163e-06,1.07723308531359e-05,2.32023685556103e-05
6.38039603145587e-06,4.29841852736965e-06,1.01839056266663e-05,2.08627201854919e-05
4.19445588507578e-06,2.89834940394934e-06,8.42042430337894e-06,1.55132295924041e-05
5.24440116478108e-06,3.85102814083875e-06,9.07643570740535e-06,1.81718650130252e-05
5.55171938051574e-06,3.9802171759838e-06,9.71068890742319e-06,1.92426254639227e-05
9.16764098718165e-06,7.8772614488849e-06,1.30381615936518e-05,3.00830640297184e-05
8.69592284052327e-05,4.45016849697965e-05,6.71533903499855e-05,0.000198614303725015
0.000341140931454169,0.000340655511170062,0.000511925727506427,0.00119372217013066
8.24909811116889e-05,0.000112220435061655,7.59096352952458e-05,0.00027062105146859
1.61649311436023e-05,8.58733275708261e-06,1.49528766913216e-05,3.97051405920065e-05
7.35271297076199e-06,4.89057406872152e-06,1.13762600492682e-05,2.36195470887517e-05
8.6051239573401e-06,7.25138261337817e-06,1.2585597101497e-05,2.84421036722153e-05
5.53536249590478e-06,4.34721965554142e-06,9.73487943074517e-06,1.96174615821914e-05
9.75235296177228e-06,4.90395864183832e-06,1.14628219468768e-05,2.61191335504874e-05
5.7620600508007e-06,4.45566326466276e-06,9.69352755267771e-06,1.99112508681412e-05
6.10461018210187e-06,4.01244997156672e-06,1.00015193063077e-05,2.01185794599763e-05
4.98725786214352e-06,3.49461681949664e-06,9.5970186169377e-06,1.80788932985779e-05
7.48082955142112e-06,5.64680866346731e-06,1.1614629268181e-05,2.47422674830695e-05
1.5262347317546e-05,9.09597644691079e-06,1.6187583265793e-05,4.05459070302498e-05
4.42306175024631e-06,3.56665578231947e-06,8.92728847063656e-06,1.69170060032023e-05
9.67182036149376e-06,7.48224925877238e-06,1.1541921229848e-05,2.86959908501141e-05
1.51732227699996e-05,1.19169092011228e-05,1.45875624841585e-05,4.16776944552809e-05
9.70523700486418e-06,6.5804878149994e-06,1.28271334394713e-05,2.91128582593349e-05
3.9260071143421e-06,3.45645505324204e-06,8.63077531103813e-06,1.60132374786223e-05
6.50156512882305e-06,5.37841775671819e-06,1.03249340505533e-05,2.22049169360946e-05
1.17468827447447e-05,7.83615522242593e-06,1.44857264894206e-05,3.40687644565912e-05
5.25918035158978e-06,3.84496686514226e-06,9.67545919056099e-06,1.8779606407293e-05
3.69308236483775e-06,3.14820901720874e-06,8.73675443783012e-06,1.55780458198766e-05
3.99350019937639e-06,3.18241484185241e-06,9.25522544259387e-06,1.64311404838227e-05
3.7646594472081e-06,3.08031932609898e-06,8.53151689724068e-06,1.53764956705478e-05
1.00165389701966e-05,9.14987722436019e-06,1.34602377734341e-05,3.2626653967991e-05
4.8598694532791e-06,3.26191287350923e-06,9.8977240138907e-06,1.8019506340679e-05
4.06212858711474e-06,3.13265272082455e-06,9.02510682007571e-06,1.6219888128015e-05
1.05138263216164e-05,6.98591196096892e-06,1.30544964331056e-05,3.05542347156909e-05
1.7035973445845e-05,1.80428160578752e-05,1.70428423916711e-05,5.21216318953913e-05
7.50104782140842e-06,5.04114224892215e-06,9.94151497936934e-06,2.24837050496999e-05
5.01284758885583e-06,4.1333694450478e-06,9.61394762012312e-06,1.87601646540267e-05
1.14937397712778e-05,6.91471783990613e-06,1.29484310049963e-05,3.13568886161802e-05
5.5796880634928e-06,4.07047887330912e-06,8.83472430327577e-06,1.84848912400777e-05
7.31211812084189e-06,5.25268717521225e-06,1.07240256343319e-05,2.3288830930386e-05
9.56482595125716e-06,5.31291417327549e-06,1.02734086510001e-05,2.51511487755327e-05
6.05213983026301e-06,3.82231043877747e-06,8.77071176577524e-06,1.86451620348157e-05
9.09238247594541e-06,6.10167032076562e-06,1.19271177836246e-05,2.71211705803356e-05
4.82117531008695e-06,3.78614085370384e-06,8.90133262806398e-06,1.75086487918548e-05
1.40739097676997e-05,9.53622567449884e-06,1.36842851402912e-05,3.72944205824897e-05
6.85898704816585e-05,0.000184703719033969,9.38187094358186e-05,0.000347112298951446
9.00931025945632e-06,6.24623279534643e-06,1.9541082183001e-05,3.47966252378038e-05
1.25267313590744e-05,6.33064313984265e-06,1.24410945508165e-05,3.12984690497335e-05
6.35680938958838e-06,4.45368951631141e-06,1.02806498133335e-05,2.10911487192333e-05
5.60270152254291e-06,4.01019512226194e-06,9.16864279198841e-06,1.87815394367933e-05
7.77261105274676e-06,5.55559910650669e-06,1.1918230678926e-05,2.52464408381795e-05
7.64908043132663e-06,4.46864820483581e-06,9.93354830834379e-06,2.20512769445062e-05
9.44162833392144e-06,7.07233282690063e-06,1.11285898650583e-05,2.76425510258804e-05
1.42165504560543e-05,8.11016242356536e-06,1.44542492401218e-05,3.67809621197415e-05
7.91603337574702e-06,6.78213754593064e-06,1.2056178250342e-05,2.67543491720197e-05
4.56080400771191e-06,3.64895393767195e-06,9.09231976626879e-06,1.73020777116526e-05
3.99869254178309e-06,3.14058137039631e-06,8.0640875166244e-06,1.52033614288038e-05
9.92243814928024e-06,5.80564156090574e-06,1.15421908183145e-05,2.72702705285005e-05
6.44140241168972e-06,4.21552998504911e-06,9.97322285110762e-06,2.06301552478465e-05
1.21138850066735e-05,8.84884002147837e-06,1.39362588498894e-05,3.48989838780412e-05
5.56384471018228e-06,4.19109774176656e-06,9.65195125819376e-06,1.94068937101426e-05
7.03269110636476e-06,4.37544412402437e-06,9.71170740498005e-06,2.11198426353692e-05
6.66615646561571e-06,4.53231089822448e-06,1.04407169643428e-05,2.1639184328183e-05
6.29980743345862e-06,4.20898620596766e-06,8.95457234065624e-06,1.94633659800825e-05
5.70961931224721e-06,3.98679478163748e-06,8.58424247674212e-06,1.82806565706268e-05
4.79206875597319e-06,3.70218493319083e-06,8.96144774087026e-06,1.74557014300343e-05
1.00607316714866e-05,8.32536490711436e-06,1.29712001648991e-05,3.13572967435001e-05
4.59758769895963e-06,4.04270417813336e-06,9.03582806061308e-06,1.76761199377061e-05
7.72195099122251e-06,1.93161207277876e-05,1.24752132327807e-05,3.95132849517908e-05
8.77868237346119e-06,7.21785483053221e-06,1.22704296254812e-05,2.82669668294746e-05
5.11573584851346e-06,4.52275881115428e-06,1.04097211373213e-05,2.0048215796989e-05
5.46551963189174e-06,4.44993405913388e-06,9.51001622836985e-06,1.94254699193955e-05
4.75901084340809e-06,3.73214898491444e-06,8.84434101265987e-06,1.73355008409824e-05
4.37375666095833e-06,3.42372361280405e-06,8.84763599367371e-06,1.66451162674361e-05
4.01322635970333e-06,3.10488644480879e-06,8.55790334774279e-06,1.56760161522549e-05
3.88609835753543e-06,3.23772111767018e-06,8.67364383095455e-06,1.57974633061602e-05
4.68720314784777e-06,3.9216951533116e-06,8.68144460787212e-06,1.72903429090315e-05
4.35517957531906e-06,3.67718389576188e-06,8.12480311182066e-06,1.61571665829016e-05
3.57592722297205e-06,3.17055139500088e-06,7.75769078660761e-06,1.45041694045805e-05
9.81068271752434e-06,5.59213323758125e-06,1.11492411806473e-05,2.65520571357529e-05
1.65643506816963e-05,1.03469986672982e-05,1.73777117081944e-05,4.42890610571888e-05
5.65238672176248e-06,3.8328954400449e-06,8.80009894176428e-06,1.82853811035717e-05
1.48342031728934e-05,1.08052274807894e-05,1.79249914115759e-05,4.35644220652587e-05
1.76844422428579e-05,1.2356216891018e-05,1.7042927722116e-05,4.70835868559919e-05
1.14668106006668e-05,5.33230590550139e-06,1.16171904898317e-05,2.84163069959999e-05
4.13282912963029e-06,3.29893306263312e-06,8.72446743271971e-06,1.61562296249831e-05
1.03470526297122e-05,6.28547291941135e-06,1.14505418888544e-05,2.8083067437978e-05
9.20257566772779e-06,6.770134885167e-06,1.29543287891698e-05,2.89270393420646e-05
5.19533823357272e-06,3.88153746306474e-06,8.86238257000988e-06,1.79392582666473e-05
5.78173271344074e-06,4.51718848964724e-06,1.01788961440936e-05,2.04778173471815e-05
7.27662841923096e-06,4.68490279451992e-06,9.82117639171925e-06,2.17827076054701e-05
7.46156908449265e-06,5.09774960401336e-06,1.14411509809582e-05,2.40004696694642e-05
4.45013570206162e-06,3.95902555479892e-06,9.11998405543837e-06,1.75291453122989e-05
4.66975723197704e-06,4.04221810839074e-06,9.17997637550145e-06,1.78919517158692e-05
6.73089248994268e-06,4.33313242932379e-06,1.03312574511177e-05,2.13952823703842e-05
9.47580629838884e-06,6.85537288472893e-06,1.12632398980847e-05,2.75944190812024e-05
5.53286249078357e-06,3.95148590146417e-06,8.86651694142478e-06,1.83508653336725e-05
1.55043042308799e-05,1.12409721020955e-05,1.63725811452561e-05,4.31178574782315e-05
1.47978833336032e-05,6.9760884605979e-06,1.32790720415858e-05,3.50530438357869e-05
6.84664876492056e-06,4.38048218678157e-06,9.54421860955431e-06,2.07713495612564e-05
8.14950005795215e-06,4.92502980356615e-06,1.00501261788985e-05,2.31246560404168e-05
7.4335283796431e-06,4.6752494956026e-06,9.3357039817099e-06,2.14444818569556e-05
7.91855809236753e-06,5.8081879160303e-06,1.08299738703861e-05,2.45567198787839e-05
6.38957405080132e-05,6.37515367407209e-05,7.53626873340588e-05,0.000203009964582793
1.15842971164983e-05,7.36211090015833e-06,1.73771853040177e-05,3.63235933206744e-05
2.03945617958005e-05,6.26203100558322e-05,2.22313874214704e-05,0.000105246259273103
3.35271504011839e-06,3.13981713598609e-06,8.30519497025393e-06,1.47977271463584e-05
3.04526466633886e-06,2.89029145606972e-06,7.89423721664563e-06,1.38297933390542e-05
3.79012520186923e-06,3.3251430461687e-06,8.07613578367572e-06,1.51914040317137e-05
3.73086658726004e-06,3.02822511562093e-06,8.28147142854787e-06,1.50405631314288e-05
4.08109544851445e-05,2.34000130311496e-05,4.03462623154944e-05,0.000104557229831789
6.30644510003528e-06,8.61793046833293e-06,1.27258403778586e-05,2.76502159462269e-05
1.35670489086444e-05,1.02840265903359e-05,1.72425189423825e-05,4.10935944413628e-05
7.22873221414326e-06,5.90436690799641e-06,1.05467515030019e-05,2.36798506251415e-05
1.64826322514814e-05,1.32304365817302e-05,1.81982225126633e-05,4.7911291345875e-05
6.445734550718e-06,4.60491148455559e-06,1.00909493265609e-05,2.11415953618345e-05
4.85244317365148e-06,3.60383454418315e-06,9.02788559140877e-06,1.74841633092434e-05
9.69903079427041e-06,6.56873018601164e-06,1.16548992106704e-05,2.79226601909524e-05
7.11370938038055e-06,6.43146980211355e-06,1.21262549190732e-05,2.56714341015673e-05
1.33001480085315e-05,1.01768891906753e-05,1.53343488733775e-05,3.88113860725843e-05
1.03372045386074e-05,7.72097408466005e-06,1.37505475843694e-05,3.18087262076368e-05
5.86917435302984e-06,4.23022247830957e-06,8.43834919695358e-06,1.8537746028293e-05
8.63348875135555e-06,6.76621947092619e-06,1.11570974757804e-05,2.65568056980622e-05
1.30486559483629e-05,6.98216344685024e-06,1.18053871462998e-05,3.1836206541513e-05
9.20153420820467e-06,4.89337898417432e-06,1.0259306881946e-05,2.4354220074325e-05
8.87924379485948e-06,8.58294010797917e-06,1.19079919394066e-05,2.93701758422453e-05
3.41268097112721e-05,2.52197575744283e-05,5.04732381886281e-05,0.000109819805474329
4.46485885923999e-05,3.70038599226274e-05,6.14629924837862e-05,0.000143115440998814
4.33375766991139e-06,4.00681754064602e-06,9.41356864675094e-06,1.77541438573083e-05
1.59483165481441e-05,1.36234211590214e-05,1.53423089020055e-05,4.49140466091711e-05
7.60212049676792e-05,7.98433909790297e-05,2.92203124438642e-05,0.000185084908390573
3.75341213190591e-06,3.81493271638563e-06,9.26687152267845e-06,1.683521637097e-05
3.72451134094133e-06,3.63265368748134e-06,8.39078691921975e-06,1.57479519476424e-05
3.29321453044687e-06,3.07669958918979e-06,7.6874722986007e-06,1.40573864182374e-05
2.99615466133632e-06,2.97593673428487e-06,7.74474814198883e-06,1.371683953761e-05
3.11612947577906e-06,2.81840749167749e-06,7.47095334946536e-06,1.34054903169219e-05
5.64247781212882e-05,3.86758045406997e-05,3.4154900385803e-05,0.000129255483047791
0.000240432270118604,0.000352879576348077,0.000261973112585688,0.00085528495905237
0.00015221546012107,0.000366880099396505,0.00039649870729226,0.000915594266809836
4.81346026278173e-05,3.50383258582445e-05,4.25306804607384e-05,0.0001257036089468
0.000279333722401542,0.00071007771206037,0.000616954569001747,0.00160636600346366
7.08823279069551e-05,6.46122626202147e-05,6.23102985254327e-05,0.000197804889052602
0.000324726861418817,0.000678712790275631,0.000644462295190893,0.00164790194688534
0.000218690125049235,0.000506203592747599,0.000767671708743251,0.00149256542654009
0.000523225559284696,0.00118806898490936,0.00109682718440009,0.00280812172859414
0.000302392015906687,0.000720750143910584,0.000533261623119344,0.00155640378293662
0.000150113670958932,0.000197117820834677,0.000169198826747215,0.000516430318540824
4.66944116282987e-05,4.42999388436671e-05,4.2017974158643e-05,0.000133012324630609
2.13464113074425e-05,1.19704318558547e-05,2.16098775648011e-05,5.49267207280982e-05
4.73426234405237e-06,3.7654843585585e-06,1.15219062854709e-05,2.00216529880817e-05
4.1180283011235e-06,3.79387292201763e-06,1.16463284023066e-05,1.95582296254477e-05
1.44039115639449e-05,2.08557430121785e-05,1.7830069969266e-05,5.30897245453894e-05
0.000123563697100941,8.16894713627914e-05,0.000113749666272448,0.00031900283473618
1.20713562305317e-05,1.28271686025766e-05,1.69974408574728e-05,4.18959656905811e-05
3.14050011718487e-06,2.77521020582845e-06,9.32216026555721e-06,1.52378705885705e-05
8.93296253799698e-06,9.02664041454922e-06,1.78090895463525e-05,3.57686924988987e-05
9.46023007657173e-06,8.8364397196436e-06,1.4724021454707e-05,3.30206912509224e-05
6.30024023835826e-06,1.1098615674503e-05,1.51337812405865e-05,3.25326371534478e-05
4.84127800732982e-05,2.41366926361618e-05,4.48828541329695e-05,0.00011743232684243
6.20067837720387e-05,5.76530253243005e-05,5.23383640604573e-05,0.000171998173156796
5.87809140971615e-05,3.06086772608291e-05,4.19716243336341e-05,0.000131361215691625
2.20134706566073e-05,2.4023310337437e-05,9.58077923285366e-05,0.000141844573322581
2.34227310097906e-05,1.31296156954689e-05,2.1397362184961e-05,5.79497088902205e-05
3.22643469612884e-05,1.74122228481888e-05,2.86647164859012e-05,7.83412862953784e-05
3.33919746336186e-05,1.25336497521233e-05,2.40066205428296e-05,6.99322449285714e-05
3.40537599315422e-05,1.27268001520152e-05,2.20706205196551e-05,6.88511806032125e-05
2.12265434547969e-05,1.00243861972074e-05,2.02204132879157e-05,5.147134293992e-05
1.36981715367349e-05,6.71189570248236e-06,1.60638948185442e-05,3.64739620577614e-05
2.47333427038921e-05,1.44166881669227e-05,2.04416471407193e-05,5.95916780115341e-05
1.12407437851073e-05,6.48768768242118e-06,1.42273545189258e-05,3.19557859864543e-05
3.99848996191762e-05,1.99003540853893e-05,2.7131226973499e-05,8.70164806780645e-05
1.63582841536763e-05,1.01825635143599e-05,1.86864687964515e-05,4.52273164644877e-05
1.06258246981784e-05,7.25278571865563e-06,1.93288243837469e-05,3.7207434800581e-05
0.000202070456741835,0.000348410790292876,0.00020265802911599,0.000753139276150701
5.51162819432448e-05,0.000102105902257312,5.711868919749e-05,0.000214340873398046
0.000201214178772093,0.000202678003883307,0.000235273267726987,0.000639165450382387
0.000505445273561068,0.00119235921617574,0.000689618854376152,0.00238742334411296
0.00029335515948294,0.000678766888458144,0.000580944557409974,0.00155306660535106
4.8139721092884e-05,2.78101920370452e-05,4.26461612456028e-05,0.000118596074375532
6.3232896818613e-06,6.79498838242862e-06,1.22499866522719e-05,2.53682647165618e-05
6.72429984004858e-06,4.36160636629589e-06,1.13780522355713e-05,2.24639584419158e-05
4.5354388716686e-06,3.13791896972374e-06,9.50806030279312e-06,1.71814181441855e-05
4.388595068849e-06,2.96839950900492e-06,8.86692908867537e-06,1.62239236665293e-05
5.38015779850638e-06,3.85217814393121e-06,1.06893081820765e-05,1.99216441245141e-05
1.53998391241355e-05,1.03389977136004e-05,1.60819744321007e-05,4.18208112698366e-05
7.94616876805338e-06,7.14800203720451e-06,1.03102965161455e-05,2.54044673214034e-05
4.16131274603134e-06,2.93701243189575e-06,8.49059422445086e-06,1.55889194023779e-05
3.93346814593514e-06,3.0923747337869e-06,8.23062784480004e-06,1.52564707245221e-05
3.92928450636013e-06,3.18863922593271e-06,8.49289121230148e-06,1.56108149445943e-05
4.07227534462752e-06,2.9919108142821e-06,8.20567802470309e-06,1.52698641836127e-05
3.62333269075809e-06,3.03979952889193e-06,8.74799002049866e-06,1.54111222401487e-05
7.8876373269074e-05,6.24033952941366e-05,4.88351636442015e-05,0.000190114932207412
1.04360503469498e-05,9.68821364065223e-06,1.46272270414408e-05,3.47514910290428e-05
4.71053714519573e-06,1.38410305218498e-05,1.56152426661655e-05,3.41668103332111e-05
1.22049575262039e-05,1.59514604081167e-05,1.84607657940269e-05,4.66171837283476e-05
9.1896708000517e-06,9.02808283374893e-06,1.33569404853536e-05,3.15746941191543e-05
9.47538290911696e-06,1.07498358741153e-05,1.29387527497517e-05,3.3163971532984e-05
1.04128254373467e-05,9.62153489537148e-06,1.36932194127924e-05,3.37275797455106e-05
8.08689214122213e-06,6.58237067021946e-06,1.30466520868301e-05,2.77159148982717e-05
6.53930089011545e-06,7.29449793042047e-06,1.22653546777159e-05,2.60991534982518e-05
7.09271296393889e-06,6.52517251964396e-06,1.25254060472095e-05,2.61432915307924e-05
8.76102686204348e-06,1.75820792930867e-05,1.72314128999873e-05,4.35745190551175e-05
5.96137792127927e-06,6.12064181397124e-06,1.11372026972457e-05,2.32192224324962e-05
5.96680608925566e-06,6.471453475473e-06,1.13678278291846e-05,2.38060873939132e-05
7.61311041169885e-06,9.69573497061706e-06,1.49655983130266e-05,3.22744436953425e-05
1.00869897553531e-05,1.04890999317243e-05,1.4615907348356e-05,3.51919970354333e-05
2.03019842377586e-05,3.29589935395602e-05,2.2272557455935e-05,7.55335352332538e-05
8.65024203188096e-06,1.34345052808553e-05,1.66241559990493e-05,3.87089033117856e-05
8.63567943764594e-06,9.31449428645536e-06,1.39796348670102e-05,3.19298085911115e-05
5.55636278819883e-06,4.89375735285627e-06,1.08809169598759e-05,2.1331037100931e-05
6.52624934946993e-06,8.42384924060115e-06,1.19940870866748e-05,2.69441856767459e-05
7.67946655478751e-06,7.71190246524949e-06,1.30075605295774e-05,2.83989295496144e-05
6.01997083454579e-06,1.23823062448019e-05,1.48368091968801e-05,3.32390862762279e-05
6.00268826817458e-06,1.0681037253774e-05,1.5084757210509e-05,3.17684827324576e-05
7.08573566470893e-06,8.51483942907144e-06,1.3282012230895e-05,2.88825873246754e-05
6.00737526948821e-06,5.88256352303759e-06,1.14567449357455e-05,2.33466837282713e-05
5.47968742800774e-06,6.04800291812465e-06,1.1777468370694e-05,2.33051587168264e-05
3.06879446358468e-05,3.31866072696657e-05,5.07917500748487e-05,0.000114666301980361
2.4137152713785e-05,3.4726308148676e-05,2.41746136486363e-05,8.30380745110973e-05
1.02226380473247e-05,1.27328564008861e-05,1.49948587789091e-05,3.79503532271199e-05
6.66985960803116e-06,1.18137925179053e-05,1.45675438769938e-05,3.30511960029302e-05
7.24209995510638e-06,9.54435828257897e-06,1.32920923238132e-05,3.00785505614986e-05
1.79126435080226e-05,2.96064377077805e-05,2.64937936866112e-05,7.40128749024144e-05
1.02023318938696e-05,2.06747070380069e-05,2.010105895202e-05,5.09780978838965e-05
6.74767465280561e-06,8.2873339690512e-06,1.29679428780866e-05,2.80029514999434e-05
3.64698719339697e-05,4.45750969285197e-05,4.1219382684931e-05,0.00012226435154742
2.41134925456614e-05,1.9568996154845e-05,2.32338314742651e-05,6.69163201747714e-05
5.75464461909977e-06,4.26184241740659e-06,9.28157037749276e-06,1.92980574139991e-05
3.83443837773039e-06,2.90498093934213e-06,8.49591511545742e-06,1.52353344325299e-05
4.16352507043679e-06,3.53836040263875e-06,8.02160486695692e-06,1.57234903400325e-05
3.94188131668795e-06,2.77206855667122e-06,7.82852945100082e-06,1.454247932436e-05
3.56732650285026e-06,2.7814793256924e-06,7.96391395706219e-06,1.43127197856048e-05
4.72133266340105e-06,3.80420686787952e-06,8.69155812195912e-06,1.72170976532397e-05
4.16544065681891e-06,3.09171893049398e-06,8.00512953468654e-06,1.52622891219994e-05
3.72634241127479e-06,2.8205929240668e-06,7.45252904564254e-06,1.39994643809841e-05
3.82142870768653e-06,3.04905595437983e-06,7.93432472061783e-06,1.48048093826842e-05
6.44144242811091e-06,5.73949374149131e-06,8.95245961554013e-06,2.11333957851423e-05
4.24038776350686e-06,3.04077333325884e-06,8.17435111550089e-06,1.54555122122666e-05
4.0086232342508e-06,2.99100208567383e-06,7.95877881549869e-06,1.49584041354233e-05
3.49279107298634e-06,2.79766368506341e-06,7.68664408988962e-06,1.39770988479394e-05
3.38943746112957e-06,2.79420148176004e-06,7.33675364593087e-06,1.35203925888205e-05
1.85867567560745e-05,1.50270018806274e-05,1.85113370506757e-05,5.21250956873776e-05
5.47867791978359e-06,1.31956591177861e-05,1.50329613007083e-05,3.3707298338278e-05
4.55250076263738e-06,6.23853891021582e-06,1.08935621704272e-05,2.16846018432804e-05
4.76974857293746e-06,5.33829425322291e-06,1.14330343022894e-05,2.15410771284498e-05
4.20430985206071e-06,4.62675966342153e-06,1.04296150867685e-05,1.92606846022507e-05
9.49412373118406e-06,9.33679163200556e-06,1.7058871973184e-05,3.58897873363736e-05
3.29591730641278e-05,3.14335267392532e-05,2.76542584806164e-05,9.20469582839974e-05
1.35387656473889e-05,1.00410468554538e-05,1.72898175712807e-05,4.08696300741233e-05
1.16737878326982e-05,6.68004813635954e-06,1.07850021949236e-05,2.91388381639814e-05
4.56593978186798e-06,3.40341279064986e-06,8.66720000998181e-06,1.66365525824997e-05
4.46642259429119e-06,3.74434972671534e-06,9.38415892043345e-06,1.759493124144e-05
4.77188596206391e-06,3.4244466351584e-06,8.1437019182687e-06,1.6340034515491e-05
3.93438845675168e-06,3.26658906703244e-06,8.41884427389823e-06,1.56198217976823e-05
5.07165841457526e-06,4.02572580307681e-06,9.2207016771964e-06,1.83180858948485e-05
6.88650253707383e-06,4.33428337804889e-06,1.00608678578141e-05,2.12816537729368e-05
6.3725629828192e-06,5.72887431131598e-06,1.23243620192125e-05,2.44257993133476e-05
7.71878301767365e-06,5.02436538734235e-06,1.05305565605012e-05,2.32737049655172e-05
4.11080878609044e-06,3.24129073346761e-06,8.7525413222941e-06,1.61046408418522e-05
4.43880585393444e-06,3.681992125771e-06,9.19233470621815e-06,1.73131326859236e-05
5.14527063812058e-06,4.48805293185157e-06,1.10304584600762e-05,2.06637820300483e-05
4.06423940763997e-06,3.43879419133041e-06,8.95812824179352e-06,1.64611618407639e-05
6.63199427410012e-06,4.21802467296862e-06,9.64238335620713e-06,2.04924023032759e-05
6.54732942645359e-06,4.08377613512063e-06,9.43041048667074e-06,2.0061516048245e-05
8.67126385699228e-06,8.6426951264027e-06,1.44288292143376e-05,3.17427881977325e-05
1.48416503399873e-05,1.13543864922267e-05,1.51527098255227e-05,4.13487466577367e-05
1.17057753992356e-05,9.43873355634767e-06,1.18303614108847e-05,3.29748703664679e-05
1.08511696844105e-05,6.71441633178598e-06,1.16309025282475e-05,2.9196488544444e-05
6.84043309527435e-06,5.60735484036875e-06,1.06542313116444e-05,2.31020192472875e-05
9.09655753103695e-06,8.05369643383655e-06,1.10232101886941e-05,2.81734641535675e-05
8.88605298046977e-06,8.67925357410818e-06,1.20300577311459e-05,2.95953642857238e-05
2.77559508443107e-05,2.05271848319807e-05,2.55282466329903e-05,7.38113823092817e-05
3.94265821679143e-05,4.76326329537786e-05,3.53538277874495e-05,0.000122413042909142
2.76742507350888e-05,2.49701247742564e-05,2.17313191658088e-05,7.43756946751541e-05
2.32273198273556e-05,1.15573842708568e-05,2.01358110735859e-05,5.49205151717984e-05
1.3892892771015e-05,1.23357396994697e-05,1.65684697303369e-05,4.27971022008216e-05
5.29186624506732e-06,5.67436325074806e-06,1.08670318435977e-05,2.18332613394131e-05
8.24657566455281e-06,8.19261348844324e-06,1.52777863365141e-05,3.17169754895102e-05
6.5471365339707e-06,5.95547377985011e-06,1.27384918710716e-05,2.52411021848925e-05
9.14716286485454e-06,7.57922822029176e-06,1.32487244268928e-05,2.99751155120391e-05
1.61451910302557e-05,1.52519927470075e-05,1.91338788192811e-05,5.05310625965443e-05
1.54123338552249e-05,1.18213176140936e-05,1.70121653876566e-05,4.42458168569751e-05
1.18162749509749e-05,2.29726994013677e-05,2.66421889139161e-05,6.14311632662588e-05
7.97714487585803e-06,8.04941116306943e-06,1.47462191751887e-05,3.07727752141161e-05
7.57744131729912e-06,1.14550401733525e-05,1.67365594994021e-05,3.57690409900537e-05
9.76648816103785e-06,1.3866151282939e-05,1.80580341041859e-05,4.16906735481627e-05
1.26837952725335e-05,1.64628560663112e-05,1.83202636725213e-05,4.7466915011366e-05
6.6105248053297e-06,6.88728350172666e-06,1.19643536008221e-05,2.54621619078785e-05
6.00851548478133e-06,6.02073899259102e-06,1.19933180653386e-05,2.4022572542711e-05
7.76886066469183e-06,9.62841627033928e-06,1.49254053005154e-05,3.23226822355465e-05
1.63879778519164e-05,1.00038396628247e-05,1.55047678702622e-05,4.18965853850033e-05
6.13153559359616e-06,2.39905010548266e-05,2.21314992600009e-05,5.22535359084237e-05
2.76629993272071e-05,2.77385916368525e-05,2.3545343901515e-05,7.89469348655747e-05
1.48861275953657e-05,1.70340925984904e-05,1.42162082216027e-05,4.61364284154588e-05
1.59548709192009e-05,2.18989913945967e-05,1.68290922626968e-05,5.46829545764945e-05
7.89082554379801e-06,1.05766413589475e-05,1.16863926339963e-05,3.01538595367418e-05
3.23036790306678e-05,3.24088445556429e-05,2.48496428940017e-05,8.95621664803124e-05
2.80187483792326e-05,2.43956335169079e-05,2.64302381045775e-05,7.8844620000718e-05
0.000249087977458089,0.000156105148484473,0.000194454943929606,0.000599648069872167
0.000127159206505668,0.000129504943200984,0.000118817455720149,0.000375481605426801
0.00013893957921487,0.000161318748657901,0.000109504949674149,0.00040976327754692
5.6360131458085e-05,2.53527871983608e-05,3.92624729844727e-05,0.000120975391640918
7.63415642901796e-06,4.63307883555213e-06,1.18561460133397e-05,2.41233812779097e-05
5.73589649938945e-06,3.89669605652342e-06,1.13289928391822e-05,2.09615853950951e-05
5.73266477840652e-06,3.94991253482558e-06,1.0799356150878e-05,2.04819334641101e-05
5.94347671524121e-06,4.2633485663372e-06,1.05747712199404e-05,2.07815965015188e-05
5.97024055470833e-06,3.91289779230626e-06,9.62318667814272e-06,1.95063250251573e-05
5.10479824383608e-06,3.74501152621691e-06,9.11259834835048e-06,1.79624081184035e-05
7.0449139066947e-06,4.63718020144435e-06,1.07373291142558e-05,2.24194232223949e-05
7.04196617665252e-06,4.56501417612795e-06,1.07518850455941e-05,2.23588653983746e-05
1.32629579243847e-05,8.40378061802453e-06,1.33520182004593e-05,3.50187567428685e-05
1.34361196312917e-05,1.16442212808842e-05,1.6317410388853e-05,4.13977513010289e-05
1.19045112461444e-05,7.83359894672752e-06,1.53005210823788e-05,3.50386312752507e-05
8.72692236536294e-06,5.36049142488719e-06,1.0668397721191e-05,2.47558115114411e-05
6.83905576506157e-06,3.84202255389763e-06,9.39448189475956e-06,2.00755602137188e-05
8.80650226701521e-06,6.0113908646881e-06,1.07495915535476e-05,2.55674846852509e-05
4.02375319829665e-06,3.13649900173469e-06,8.15592905225614e-06,1.53161812522875e-05
4.24462216966667e-06,3.21096849455188e-06,8.15703247072352e-06,1.56126231349421e-05
7.53706058240554e-06,5.95752022938456e-06,1.01371557832243e-05,2.36317365950144e-05
6.57920181037034e-06,5.33230340010269e-06,9.86025928701841e-06,2.17717644974914e-05
1.30305810338691e-05,7.90402623164259e-06,1.16351102427726e-05,3.25697175082843e-05
6.96377961168791e-06,4.15680219766267e-06,9.55975962478235e-06,2.06803414341329e-05
6.96308892897032e-06,4.33951256316072e-06,9.92643398981439e-06,2.12290354819454e-05
6.15179161206465e-06,3.91297273268447e-06,9.18984524637872e-06,1.92546095911278e-05
6.46453807696939e-06,3.61761285792863e-06,8.79680860000662e-06,1.88789595349046e-05
5.28817452349806e-06,3.72326232755939e-06,8.16997396465971e-06,1.71814108157172e-05
8.16775998149745e-05,7.20737478860437e-05,6.02295008027793e-05,0.000213980848503798
4.99366188178355e-06,3.6160241063638e-06,9.25161675493023e-06,1.78613027430776e-05
3.99365847587553e-06,3.35768194708546e-06,9.00799810705619e-06,1.63593385300172e-05
7.81155504001586e-06,4.3430171003689e-06,1.0221260368069e-05,2.23758325084538e-05
5.05261450250347e-06,3.65313408109483e-06,9.33511914090894e-06,1.80408677245072e-05
4.85428152170361e-06,3.64759560039765e-06,9.14931635266426e-06,1.76511934747655e-05
5.15266487556181e-06,4.11123511889007e-06,9.69607354746536e-06,1.89599735419172e-05
5.67248620962479e-06,3.7087591667873e-06,8.99261177033737e-06,1.83738571467495e-05
4.41547493453996e-05,4.03985760652229e-05,3.68080590318919e-05,0.000121361384442514
1.5044163281741e-05,2.01813700990894e-05,2.52830312944471e-05,6.05085646752775e-05
1.64729418523658e-05,1.83143313676112e-05,2.52118300878533e-05,5.99991033078304e-05
2.02505315407894e-05,1.70229550315048e-05,1.7757160046719e-05,5.50306466190132e-05
2.9755477053685e-05,0.00012895778032734,7.60586812471418e-05,0.000234771938628166
3.17116155158465e-06,2.83589711305346e-06,7.94179731103998e-06,1.39488559756781e-05
3.81231707177587e-06,3.13465588639539e-06,8.20039294576105e-06,1.51473659039323e-05
3.68262201904247e-06,3.24057167938595e-06,7.40693627471784e-06,1.43301299731463e-05
3.31146708499689e-06,2.92829362989212e-06,7.45773965551084e-06,1.36975003703998e-05
8.4507894732137e-06,1.33525539975301e-05,1.25034184327269e-05,3.43067619034707e-05
0.000524046781081494,0.00118924758690851,0.0010457651316914,0.0027590594996814
0.000661809088410562,0.00169758858584619,0.00121346717210134,0.00357286484635809
0.000439022664151641,0.00154017999090231,0.000876343298598167,0.00285554595365211
0.000130663809580171,0.000140534850428786,0.000125188861924735,0.000396387521933692
4.78689663692833e-05,3.7687395550879e-05,5.87731382070939e-05,0.000144329500127256
0.000268016414436936,0.000687661044592868,0.00085126149653295,0.00180693895556275
0.000178981930086763,0.000531513268219408,0.000547581614843777,0.00125807681314995
0.000103933644002035,0.000137416759634441,0.000111062728081269,0.000352413131717745
9.65727785877735e-06,5.5825320115533e-06,1.37450440395114e-05,2.89848539098421e-05
1.02666623090482e-05,7.58899920431979e-06,1.18649773550914e-05,2.97206388684594e-05
1.17907194059255e-05,7.25776090914186e-06,1.36136695854251e-05,3.26621499004925e-05
1.40840317789681e-05,1.40565541776068e-05,1.55595411907473e-05,4.37001271473223e-05
2.14194571781474e-05,4.63350259987283e-05,2.88669529070545e-05,9.66214360839303e-05
1.16088268839718e-05,3.15399359925094e-05,2.87732720073594e-05,7.19220348838406e-05
1.43400979747375e-05,1.06927642381693e-05,1.57645735753047e-05,4.07974357882115e-05
9.52859383005199e-06,6.72539219310846e-06,1.19827016906261e-05,2.82366877137866e-05
9.44871901359975e-06,7.04471436784545e-06,1.15615040100538e-05,2.80549373914991e-05
1.14667919128298e-05,6.9125220341471e-06,1.25270569990988e-05,3.09063709460757e-05
0.000609340445519504,0.00157977728098521,0.00129893202921957,0.00348804975572429
0.000260326383880105,0.00124278757077701,0.000654196529989384,0.0021573104846465
4.16495627474531e-06,3.22598310475123e-06,9.49361109063673e-06,1.68845504701333e-05
0.000168458440514168,0.000301597320185617,0.000375806070767445,0.00084586183146723
0.000121828973342129,0.000282232319318523,0.000319484392386244,0.000723545685046895
8.9144148260323e-05,0.000136390718112324,0.000164068075127857,0.000389602941500504
0.00047251619797182,0.00107891074870551,0.00117351913604672,0.00272494608272405
0.00237837914940054,0.00593831201239273,0.00276985986291863,0.0110865510247119
5.88443462291131e-05,8.16089737004084e-05,7.14385869240119e-05,0.000211891906853533
2.34886329067459e-05,1.52553571598998e-05,5.02903604380755e-05,8.90343505047212e-05
3.91447193395993e-05,3.40555775401224e-05,5.15916542136637e-05,0.000124791951093385
0.000291216332206563,0.000726278279294428,0.000822134909746226,0.00183962952124722
0.00012977613980401,0.000298085111482342,0.000422610361660484,0.000850471612946836
3.72161800551861e-05,3.22471320362246e-05,4.026441228638e-05,0.000109727724377791
1.65099572523598e-05,3.07276191868658e-05,2.73619403233099e-05,7.45995167625355e-05
1.55487028666013e-05,1.06631154689298e-05,1.93065581909404e-05,4.55183765264715e-05
1.00810387633734e-05,5.01058656095653e-06,1.34227089538838e-05,2.85143342782137e-05
5.14265858912951e-05,6.18376321114164e-05,2.53842262442448e-05,0.000138648444246956
1.23217990702441e-05,8.7437137403572e-06,1.54246734844512e-05,3.64901862950525e-05
5.09609090947636e-06,3.39234954755734e-06,1.04819326469606e-05,1.89703731039943e-05
1.72520634908022e-05,9.04869245132978e-06,1.29697907470956e-05,3.92705466892276e-05
1.04280893261286e-05,5.24337605510966e-06,1.35366893734898e-05,2.9208154754728e-05
4.95839211575127e-05,4.40885673402202e-05,5.00289428869975e-05,0.00014370143138473
8.72291670789506e-06,7.33668518314345e-06,1.65365739070245e-05,3.2596175798063e-05
4.46019739895571e-06,3.7867601945854e-06,1.2913295775017e-05,2.11602533685581e-05
5.56365530924897e-06,4.82172508479777e-06,1.36234691945107e-05,2.40088495885575e-05
4.30203467419039e-06,3.37219984103117e-06,1.00448304270112e-05,1.77190649422327e-05
3.35267530076634e-06,2.80834417988504e-06,9.24774053133578e-06,1.54087600119872e-05
1.16928914071767e-05,1.54623866743475e-05,1.69047051235536e-05,4.40599832050779e-05
1.54802765680276e-05,1.41476756744629e-05,1.54822511602831e-05,4.51102034027736e-05
3.23719448159763e-06,2.80305095179338e-06,7.64817101510558e-06,1.36884164484966e-05
3.17358755954611e-06,2.78053062131638e-06,7.27910012306969e-06,1.32332183039322e-05
3.1871120678104e-06,2.69760812195414e-06,7.83824526155122e-06,1.37229654513158e-05
3.28341699042911e-06,2.79312047574827e-06,7.12155337822721e-06,1.31980908444046e-05
2.559596123501e-05,1.93188563473519e-05,2.13168663336298e-05,6.62316839159916e-05
3.39180512901172e-06,2.96346181307747e-06,8.34741952959085e-06,1.470268647168e-05
3.61407500327758e-06,2.92608966350343e-06,8.12873032202769e-06,1.46688949888087e-05
1.32666089765578e-05,1.044958286906e-05,1.32519431013031e-05,3.6968134946921e-05
6.97451580303335e-06,6.81863821308139e-06,1.33685378453605e-05,2.71616918614752e-05
6.49117730535625e-06,5.73173368324046e-06,1.23990603416347e-05,2.46219713302315e-05
2.85176024220869e-05,6.64926553178033e-05,6.16806407012732e-05,0.000156690898441163
2.39251012404328e-05,1.73842103944415e-05,2.92819528959456e-05,7.05912645308199e-05
4.12258325510442e-05,2.67191456524493e-05,3.62889631968855e-05,0.000104233941400379
3.27814382334233e-05,1.50516435497108e-05,2.8949043945019e-05,7.67821257281531e-05
1.39011000429848e-05,7.83870638100745e-06,1.40734922906438e-05,3.58132987146361e-05
1.83937022589303e-05,1.6929384985194e-05,2.70257845616162e-05,6.23488718057405e-05
9.47990827647159e-06,8.15633421197687e-06,1.50458693764602e-05,3.26821118649087e-05
3.47811846836237e-06,3.36884588898582e-06,8.70040281599434e-06,1.55473671733425e-05
3.5515600876936e-06,3.00493993335348e-06,7.97357337498577e-06,1.45300733960329e-05
5.9057778402663e-05,8.4483804089252e-05,8.86510654995762e-05,0.000232192647991491
3.60967451562046e-05,0.000123433519158241,7.47497027572689e-05,0.000234279967071715
1.83653072676146e-05,1.49464184627549e-05,2.2970769851609e-05,5.62824955819785e-05
9.0852840321637e-06,5.89110962137196e-06,1.30608504297053e-05,2.8037244083241e-05
5.20538513148968e-05,3.72694938081936e-05,3.41419399781043e-05,0.000123465285101195
1.62774954683836e-05,1.20923051451485e-05,2.59901712926248e-05,5.43599719061569e-05
3.15096367381222e-05,3.59167625289437e-05,3.0870155110453e-05,9.82965543775189e-05
0.000518997421580561,0.0013818190678025,0.00123061391113349,0.00313143040051654
0.000592879837637946,0.00103206846469499,0.00156087602834131,0.00318582433067425
0.000571177081292255,0.00131341995184019,0.00136247263652771,0.00324706966966016
0.000307589885534348,0.000849288240851655,0.000687302059734343,0.00184418018612035
1.9544104852982e-05,8.90673382641114e-06,1.72828527672944e-05,4.57336914466875e-05
2.12268528825187e-05,1.33223349400126e-05,1.6583366989528e-05,5.11325548120593e-05
8.28760644463266e-06,9.32561997649832e-06,1.58777483768671e-05,3.3490974797998e-05
1.7200081812733e-05,1.23836184898143e-05,1.53057217770801e-05,4.48894220796274e-05
1.14295362364614e-05,7.70104741981187e-06,1.32921210352141e-05,3.24227046914874e-05
4.98761492224522e-06,4.07737389815762e-06,8.75275925155037e-06,1.78177480719532e-05
8.02622451950593e-06,7.2814776309445e-06,1.43551265537528e-05,2.96628287042032e-05
0.00014021029737578,0.000116151142235695,0.000133747182677354,0.000390108622288829
0.000119990690070611,5.18893601384565e-05,6.77593673468267e-05,0.000239639417555894
4.777592815162e-05,2.27507487538196e-05,3.30819040577065e-05,0.000103608580963146
6.13832389199069e-05,2.39595836805847e-05,4.19142999719957e-05,0.000127257122572487
4.9890458453688e-05,3.81342572229834e-05,4.89572030898518e-05,0.000136981918766523
2.14041467717686e-05,1.76593668451599e-05,2.46924915912817e-05,6.37560052082101e-05
8.09275062809194e-06,7.31865287849858e-06,1.33725316481013e-05,2.87839351546918e-05
0.000111080564416245,2.3466278152541e-05,4.24003240952264e-05,0.000176947166664013
5.0749215634082e-05,2.40761331418769e-05,4.53494423291871e-05,0.000120174791105146
7.73484939404199e-06,3.84530035956729e-06,1.42018719822679e-05,2.57820217358772e-05
3.89514080059466e-05,1.46745402365295e-05,3.65959906785537e-05,9.02219389210298e-05
3.81709352405781e-05,2.1238623609933e-05,3.4660069503278e-05,9.40696283537891e-05
5.92951726413038e-06,4.31007142106624e-06,1.02072663317762e-05,2.04468550169728e-05
4.4231353961774e-06,3.24916128865748e-06,9.40648349886465e-06,1.70787801836995e-05
4.3592836226151e-06,3.49467060192363e-06,1.09655339340091e-05,1.88194881585478e-05
3.94220560049364e-06,3.12890985586581e-06,9.66516406130153e-06,1.6736279517661e-05
3.7554810745175e-06,3.22656765906097e-06,9.54411426914916e-06,1.65261630027276e-05
4.88203178515613e-06,3.65992345940765e-06,1.08997891151602e-05,1.9441744359724e-05
3.97616436111939e-06,3.12483811848898e-06,9.47552308870714e-06,1.65765255683155e-05
3.8652399077737e-06,3.11835845964962e-06,9.4704663441382e-06,1.64540647115615e-05
3.73283425272876e-06,3.23209465145188e-06,9.73810224643798e-06,1.67030311506186e-05
4.06138546805009e-06,3.35549063917246e-06,1.00741633914163e-05,1.74910394986389e-05
3.70504074301062e-06,3.06303974370998e-06,8.88722159615046e-06,1.56553020828711e-05
4.57174910503536e-06,3.3849443312604e-06,1.06332063974076e-05,1.85898998337033e-05
3.74054187429075e-06,3.43840265681759e-06,9.92734718944035e-06,1.71062917205487e-05
1.33876003959729e-05,1.04518361917056e-05,1.57176624971507e-05,3.95570990848293e-05
6.67281052149694e-06,7.91135994768627e-06,1.2443306355873e-05,2.70274768250563e-05
1.96328462211381e-05,2.17717973570261e-05,2.60381112843916e-05,6.74427548625558e-05
1.06939616605392e-05,6.58603939808664e-06,1.25278210668341e-05,2.98078221254599e-05
4.72678863596388e-06,4.14943720613563e-06,1.05783247362109e-05,1.94545505783105e-05
4.14176507858389e-06,3.48506120270745e-06,9.01105017177775e-06,1.66378764530691e-05
6.10151606516576e-06,5.5845980670924e-06,1.35346000028063e-05,2.52207141350645e-05
4.67980898213716e-06,4.08259412269659e-06,1.06472479605116e-05,1.94096510653453e-05
4.90676528350858e-06,3.38062096953941e-06,9.27712588204465e-06,1.75645121350926e-05
2.03083122512974e-05,1.94898694191011e-05,2.40862654810949e-05,6.38844471514934e-05
2.83899327392682e-05,2.13847414584498e-05,2.0265514059449e-05,7.0040188257167e-05
3.08704579456006e-06,2.74975300463705e-06,8.02985741325053e-06,1.38666562124476e-05
3.14600173577506e-06,3.03225101052798e-06,8.28613542855745e-06,1.44643881748605e-05
3.08706484765029e-06,2.99521755030125e-06,8.0552198532951e-06,1.41375022512467e-05
3.05844349675706e-06,2.91215681995534e-06,7.94406311117119e-06,1.39146634278836e-05
3.12189866210591e-06,2.7979155104936e-06,7.21251467186493e-06,1.31323288444644e-05
3.07051631973963e-06,2.60978121567848e-06,7.53195157716347e-06,1.32122491125816e-05
3.13148669865653e-06,2.52897593088198e-06,6.95583799368988e-06,1.26163006232284e-05
2.87504362476832e-06,2.50085764853287e-06,6.96304709760034e-06,1.23389483709015e-05
2.99923211609214e-06,2.59204646426918e-06,7.10778486902679e-06,1.26990634493881e-05
3.04543636637493e-06,2.62179229473513e-06,6.8661207913671e-06,1.25333494524772e-05
7.24258069239564e-06,6.06393846138527e-06,1.02889371225644e-05,2.35954562763453e-05
1.95651841035844e-05,8.02030830778599e-06,1.18688481647301e-05,3.94543405761005e-05
1.44610357661232e-05,1.1703768360375e-05,2.00700597499355e-05,4.62348638764337e-05
4.25262663856035e-06,3.42893338842227e-06,1.01681474950242e-05,1.78497075220068e-05
1.76333230887046e-05,1.62613683817409e-05,2.70096546158359e-05,6.09043460862814e-05
4.12618948039026e-05,2.66906589064781e-05,4.19313478917713e-05,0.000109883901602152
7.26286627182136e-06,7.20135598775767e-06,1.0077744834625e-05,2.4541967094204e-05
5.85086245897084e-06,5.58167624483815e-06,9.51592044538305e-06,2.0948459149192e-05
1.01709708918231e-05,1.01868424360314e-05,1.60380767476964e-05,3.63958900755509e-05
2.4704797433566e-05,1.27382558678672e-05,3.12294515201103e-05,6.86725048215435e-05
4.44261235341926e-06,3.12837227056866e-06,1.11295407081679e-05,1.87005253321558e-05
4.41292853628894e-06,3.15796128210854e-06,1.12676133938953e-05,1.88385032122928e-05
3.78647709941638e-06,2.88487358870243e-06,1.07574671004819e-05,1.74288177886007e-05
4.15152847941583e-06,3.22741126742781e-06,1.11858110479308e-05,1.85647507947744e-05
1.28337519414687e-05,8.09322471826599e-06,1.98723408417934e-05,4.07993175015281e-05
4.26380197907624e-06,2.97833044302469e-06,1.11093130209676e-05,1.83514454430686e-05
9.28902355097393e-06,8.46832931395826e-06,1.88374007992295e-05,3.65947536641617e-05
9.30642547465207e-06,5.92006146898052e-06,1.5214162086992e-05,3.04406490306246e-05
1.88220835036513e-05,1.26173935803942e-05,2.66795234837023e-05,5.81190005677478e-05
4.45799967375489e-06,3.14028908868445e-06,1.0918202849057e-05,1.85164916114963e-05
4.80641230873633e-06,3.31086601488157e-06,1.26887063710228e-05,2.08059846946407e-05
3.53347586066162e-06,2.78712952608421e-06,1.08203142321588e-05,1.71409196189046e-05
4.1434540787746e-06,3.43525251485543e-06,1.11409835623082e-05,1.87196901559382e-05
3.65532042272872e-06,2.76775044605349e-06,9.92044584265797e-06,1.63435167114402e-05
3.34816698753231e-06,2.61728597809193e-06,1.05763789076326e-05,1.65418318732569e-05
3.04413127090294e-06,2.48680213233757e-06,9.45101230457846e-06,1.4981945707819e-05
5.34160880591266e-06,3.6250119578179e-06,1.15947622849742e-05,2.05613830487047e-05
7.27492878926807e-06,4.33773452942309e-06,1.27045131144959e-05,2.43171764331871e-05
4.76842405822595e-06,3.13378045301243e-06,1.12893817649353e-05,1.91915862761736e-05
4.99797996504465e-06,3.57548667155827e-06,1.22128172161931e-05,2.07862838527961e-05
5.10886553432416e-06,3.30720416566347e-06,1.178403941545e-05,2.02001091154376e-05
3.71068105314182e-06,2.6888246537335e-06,9.28389235679869e-06,1.5683398063674e-05
3.11989268475651e-06,2.56300474288017e-06,8.85910846372515e-06,1.45420058913618e-05
3.06675300182789e-06,2.67915122313284e-06,9.39062459952225e-06,1.5136528824483e-05
4.55707524049277e-06,3.8349511417983e-06,1.06345582112281e-05,1.90265845935192e-05
5.88624046353435e-06,4.25006234067806e-06,1.09843246134233e-05,2.11206274176357e-05
4.39970411174512e-05,3.85124019250739e-05,4.58278274796892e-05,0.000128337270522214
2.89987463882056e-05,2.4210719998238e-05,3.78468867798488e-05,9.10563531662924e-05
1.22632548130378e-05,1.10257082337638e-05,1.93443338065588e-05,4.26332968533604e-05
5.33004825052211e-06,4.86517865508512e-06,1.15510191415233e-05,2.17462460471306e-05
7.2456778101535e-06,5.72393919410808e-06,1.25047359193953e-05,2.54743529236569e-05
2.85910434712747e-05,2.51279139993894e-05,2.45493523105894e-05,7.82683097812535e-05
1.22918250896822e-05,7.93226082740264e-06,1.39347635606252e-05,3.41588494777101e-05
4.29824952282951e-06,4.01787938642204e-06,9.57210339133329e-06,1.78882323005848e-05
3.52176662792838e-06,3.09177897007218e-06,8.7673643856658e-06,1.53809099836664e-05
3.76564900478664e-06,3.17962175402562e-06,8.34421789285967e-06,1.52894886516719e-05
8.72136127596255e-06,9.05982776517831e-06,1.61547717121684e-05,3.39359607533092e-05
2.73107500592644e-05,1.95824793010207e-05,2.83951636831283e-05,7.52883930434135e-05
1.00489787998352e-05,8.3162321804153e-06,1.32801292249337e-05,3.16453402051842e-05
3.22286130036358e-06,2.8466665856266e-06,8.15682024081884e-06,1.4226348126809e-05
5.76556040374158e-06,4.15190518511566e-06,8.45293725527276e-06,1.837040284413e-05
8.63930295678312e-06,9.65020504454635e-06,1.65525819599639e-05,3.48420899612933e-05
8.69428189396112e-06,4.6606421203181e-06,1.13659164363926e-05,2.47208404506718e-05
5.93316735674303e-06,4.40598998885297e-06,1.13606412993705e-05,2.16997986449665e-05
7.01619546577993e-05,3.24097684731491e-05,4.74768295684504e-05,0.000150048552699399
4.01094298105108e-06,2.90776330113627e-06,8.3722186727854e-06,1.52909249549727e-05
3.99632878055327e-06,2.92663291650613e-06,8.56568523710485e-06,1.54886469341643e-05
4.99729512571412e-06,3.47323963004007e-06,1.2380333306589e-05,2.08508680623432e-05
3.21479702980697e-05,2.19252225340685e-05,5.0825220967515e-05,0.000104898413799653
2.54256362066415e-05,1.94299857405481e-05,6.52973908411055e-05,0.000110153012788295
2.44868195138623e-05,1.33743155085829e-05,3.11972880041882e-05,6.90584230266335e-05
2.06290163680483e-05,1.26213238870174e-05,3.50210554545868e-05,6.82713957096525e-05
6.46325840520555e-06,4.50709927781702e-06,1.59582081244118e-05,2.69285658074344e-05
5.04895287552295e-06,4.54095900106785e-06,1.46178110533147e-05,2.42077229299055e-05
9.53138932202169e-06,5.68199280176438e-06,2.08908676859842e-05,3.61042498097703e-05
5.99726837850324e-06,4.88600427936834e-06,1.43457932562356e-05,2.52290659141072e-05
8.03613602065636e-06,8.22758517176202e-06,2.3527781533782e-05,3.97915027262003e-05
1.59418831928851e-05,9.37780979764996e-06,2.61101153628846e-05,5.14298083534197e-05
2.75027426900108e-05,1.96309962802977e-05,3.80548595397653e-05,8.51885985100738e-05
3.05098957116851e-05,2.21837383024247e-05,3.11890175972939e-05,8.38826516114037e-05
1.11822444425347e-05,1.0906164392164e-05,1.88197692376015e-05,4.09081780723002e-05
1.42312409442454e-05,1.20845725990537e-05,2.1233444925784e-05,4.7549258469083e-05
3.82384856213612e-05,3.03804765348412e-05,6.23610480028175e-05,0.00013098001015902
3.4800939557087e-05,2.66016799619762e-05,5.33865199416285e-05,0.000114789139460692
2.34492454950357e-05,1.43293918083659e-05,2.8447090334583e-05,6.62257276379846e-05
8.73750381003559e-06,7.47596250040385e-06,1.29900109910776e-05,2.9203477301517e-05
6.51743069673486e-06,4.6268574497941e-06,1.07832552525078e-05,2.19275433990367e-05
1.64359017949693e-05,1.66156880531099e-05,3.13202532573595e-05,6.43718431054387e-05
9.72135666049373e-06,1.1183467926007e-05,2.01423535124093e-05,4.104717809891e-05
7.71446832554454e-06,5.57753126013838e-06,1.2830785212041e-05,2.61227847977239e-05
1.18899573843101e-05,7.4648695389545e-06,1.82836596645783e-05,3.76384865878429e-05
3.20139756126193e-05,1.16452582187428e-05,2.27404092760815e-05,6.63996431074436e-05
3.05472128164484e-05,1.9686350613922e-05,3.89971080083885e-05,8.92306714387589e-05
0.000410250461710704,0.000730855293199553,0.000874661788534316,0.00201576754344457
6.74689993835985e-05,7.42435031457576e-05,7.47209260777744e-05,0.000216433428607131
0.000154755939706944,0.000284015645220694,0.000164425497135007,0.000603197082062644
0.000167355156554897,0.00019174194118999,0.000197390286726153,0.000556487384471039
0.000153086092718244,0.000225235339438815,0.000356509168359797,0.000734830600516856
3.207030409565e-05,2.27687193204195e-05,4.30519458137233e-05,9.78909692297928e-05
0.000307320730114496,0.000502199272050675,0.000300885436094474,0.00111040543825965
0.000177589421690057,0.000247109290319541,0.000218978406444231,0.00064367711845383
0.000540946873813615,0.000835921446579016,0.00083403749542979,0.00221090581582242
0.000361334992764257,0.00044691859229138,0.00039552158141081,0.00120377516646645
0.000139344107872643,8.27339016091144e-05,0.00012819352756146,0.000350271537043217
8.60919497352171e-05,0.000143989893025669,0.000203035811375871,0.000433117654136757
0.000460578759079141,0.000716588071838313,0.000492671249858622,0.00166983808077608
4.58525376423784e-05,5.44520138184655e-05,8.88783011139183e-05,0.000189182852574762
0.000253417845629126,0.000564733492071207,0.000311588770008745,0.00112974010770908
0.000207012826007246,0.000102562876607165,7.8747968971642e-05,0.000388323671586053
7.5637401982338e-06,6.5435689907475e-06,1.51991444765571e-05,2.93064536655384e-05
4.57542012872666e-06,3.96368886761373e-06,1.12058380500223e-05,1.97449470463627e-05
4.37158452733204e-06,5.16550740722442e-06,1.03525826010568e-05,1.98896745356132e-05
4.00728592226529e-05,6.3587939312459e-05,6.82451775323628e-05,0.000171905976067475
1.70139284196239e-05,2.40273829418299e-05,1.95776425851955e-05,6.06189539466493e-05
1.87582499402453e-05,1.55654452073984e-05,1.78928185298106e-05,5.22165136774544e-05
3.88842273922695e-05,4.01007003863489e-05,3.05047897310134e-05,0.000109489717509632
0.000127899994252163,9.20616744737332e-05,3.49196455238943e-05,0.000254881314249791
4.51648483494649e-06,4.38104640944782e-06,9.81801198762669e-06,1.8715543232021e-05
4.9231801142577e-06,4.50284575320548e-06,9.60742596022568e-06,1.90334518276889e-05
5.45938174368031e-06,4.85534650801031e-06,1.18040228283813e-05,2.21187510800719e-05
4.70384611315357e-06,4.21164689735764e-06,1.1052072310696e-05,1.99675653212072e-05
3.74130798597397e-06,4.08418903656498e-06,9.22831806734734e-06,1.70538150898863e-05
3.6008968854559e-06,3.27942535690001e-06,7.94768863292903e-06,1.48280108752849e-05
6.01052363838057e-06,6.92558186997191e-06,1.48846046838602e-05,2.78207101922127e-05
5.38106932135662e-06,8.74464661272284e-06,1.10693399767047e-05,2.51950559107841e-05
5.19568512909917e-06,6.45722720243036e-06,1.37661568262499e-05,2.54190691577794e-05
5.41790524734069e-06,5.13203878073798e-06,9.14846416428263e-06,1.96984081923613e-05
1.72930121682968e-05,1.50307451465015e-05,2.36898569927631e-05,5.60136143075614e-05
1.39318189131064e-05,1.34777401154895e-05,1.72042897028416e-05,4.46138487314375e-05
2.696887508608e-05,4.03014734537538e-05,2.33772078215775e-05,9.06475563614113e-05
6.77440523359145e-06,6.41321574562349e-06,1.09541991273156e-05,2.41418201065306e-05
4.19675796809093e-06,3.6771167005424e-06,7.68345077542633e-06,1.55573254440597e-05
3.64758332477282e-06,3.17969185671124e-06,7.74283508746863e-06,1.45701102689527e-05
4.36953280438424e-06,4.29480684503239e-06,9.66651480247843e-06,1.83308544518951e-05
5.35425178923293e-06,4.33710883278052e-06,9.26148529922625e-06,1.89528459212397e-05
4.45957996721864e-05,2.96591008568512e-05,3.85372973225135e-05,0.000112792197851551
8.71346320444531e-05,3.98963652161869e-05,6.0867878957919e-05,0.000187898876218559
0.000167080020995413,7.65260711340777e-05,0.000112392044686792,0.000355998136816283
1.1533456224364e-05,1.19212798882188e-05,2.13153808707943e-05,4.47701169833771e-05
4.59366693373507e-06,4.35710429247851e-06,1.16173987367138e-05,2.05681699629274e-05
4.32091093838974e-06,4.98602820034822e-06,1.37310907712759e-05,2.30380299100139e-05
3.84567514906053e-06,3.54768293332269e-06,9.48958088453917e-06,1.68829389669224e-05
5.89827222088619e-06,5.15773444038397e-06,1.21210593748673e-05,2.31770660361375e-05
5.32932576724676e-06,5.95225010595058e-06,1.37552769892001e-05,2.50368528623975e-05
4.40554127484456e-06,4.49201902041751e-06,1.18937851824674e-05,2.07913454777295e-05
4.84899721994312e-06,5.44617417838691e-06,1.3933623173711e-05,2.4228794572041e-05
4.21852281815951e-06,4.39260545756146e-06,1.10243427667457e-05,1.96354710424667e-05
6.27414005337791e-06,8.69632768961875e-06,1.23340474484735e-05,2.73045151914702e-05
4.32533188935033e-06,5.10955625596534e-06,1.11765728311218e-05,2.06114609764375e-05
4.2499299657102e-06,4.12941828549744e-06,9.261534077434e-06,1.76408823286416e-05
4.7483957756658e-06,5.64328423889775e-06,1.26185678812283e-05,2.30102478957919e-05
1.54393971031586e-05,9.96712052642384e-06,1.72669702328392e-05,4.26734878624216e-05
6.16531857513789e-06,7.53019836043857e-06,1.22819683925451e-05,2.59774853281215e-05
4.24348139965744e-06,4.34052110627674e-06,1.07690942801187e-05,1.93530967860529e-05
5.00010839480171e-06,6.77130626804574e-06,1.14226073586337e-05,2.31940220214812e-05
4.61913785482466e-06,6.35508890009761e-06,1.3562199482496e-05,2.45364262374183e-05
6.32445531599976e-06,1.03209825678032e-05,1.96873856031921e-05,3.6332823486995e-05
4.10625047294853e-06,4.99968828397923e-06,1.10819568512484e-05,2.01878956081762e-05
3.92525390009005e-06,5.55779295758769e-06,1.15652827022093e-05,2.1048329559887e-05
5.13830792125526e-06,4.97847679378793e-06,1.14265885533751e-05,2.15433732684183e-05
6.63862733246038e-06,7.43391563173377e-06,1.58795588739691e-05,2.99521018381632e-05
4.31173047898761e-06,4.57961974671005e-06,9.56891728895799e-06,1.84602675146557e-05
9.00270746828067e-06,1.03618158049636e-05,1.76480108954961e-05,3.70125341687404e-05
7.06707282857e-06,6.34632475670468e-06,1.43102461135601e-05,2.77236436988348e-05
1.01538341118173e-05,1.58687364251389e-05,1.87848056788017e-05,4.48073762157578e-05
4.24066490886698e-06,4.8703871691237e-06,1.08820572063851e-05,1.99931092843758e-05
3.69478094582751e-06,3.37413852234262e-06,8.74856660167442e-06,1.58174860698445e-05
4.74321902669477e-06,5.1656798390025e-06,1.06775917179606e-05,2.05864905836579e-05
4.98752113449163e-06,4.59737777204867e-06,1.04475363523682e-05,2.00324352589085e-05
3.73754500241376e-06,4.13051787825485e-06,1.06970196303588e-05,1.85650825110274e-05
3.76073728293743e-06,3.71527335919699e-06,9.31375314950511e-06,1.67897637916395e-05
7.08598612798884e-06,5.5303888305488e-06,1.17956517001203e-05,2.4412026658658e-05
5.74823018650346e-06,5.67528913361985e-06,9.31779670441276e-06,2.07413160245361e-05
7.45779846766024e-06,5.25335618735009e-06,1.22113838501338e-05,2.49225385051442e-05
4.93656060956442e-06,5.41585241001932e-06,1.36872245910823e-05,2.40396376106661e-05
6.45066765943185e-06,6.44321654594279e-06,1.64157807986994e-05,2.93096650040741e-05
1.37967666654331e-05,9.93557080612141e-06,1.48789272337336e-05,3.86112647052881e-05
1.22178295150746e-05,1.45551595470992e-05,3.06373544319213e-05,5.74103434940952e-05
4.10609273467104e-06,4.31450117581533e-06,1.0176752030908e-05,1.85973459413944e-05
3.02036544450609e-06,2.83465917841872e-06,8.62712140149807e-06,1.44821460244229e-05
3.28140087404767e-06,2.98856844349472e-06,8.33614457637527e-06,1.46061138939177e-05
3.41508749061542e-06,3.09311418935632e-06,8.84753432145016e-06,1.53557360014219e-05
1.06219063781114e-05,1.3014639691326e-05,2.14205827857661e-05,4.50571288552034e-05
3.94260347595193e-06,3.00220636208643e-06,8.13786513879003e-06,1.50826749768284e-05
8.67765466677371e-06,1.07861762164819e-05,1.8683586706727e-05,3.81474175899826e-05
2.08945935400316e-05,2.30459756228902e-05,1.99582478327764e-05,6.38988169956982e-05
1.22373141349945e-05,1.2963518218425e-05,1.65693049253381e-05,4.17701372787576e-05
0.000353241065302689,0.000324130479509594,0.000306520788870676,0.000983892333682959
6.7629158477664e-05,4.94443893321212e-05,5.47493176028921e-05,0.000171822865412677
0.000110021136552574,0.000101697641997108,0.000234006931684066,0.000445725710233748
1.24565272556846e-05,6.71983460146307e-06,1.99979930701837e-05,3.91743549273313e-05
0.000656259574020357,0.000554663119820775,0.00176487178001088,0.00297579447385202
0.000103942211467182,0.000121041122954812,6.46131356135653e-05,0.00028959647003556
0.000101625940694878,0.00026897875765726,0.000593401096792905,0.000964005795145043
0.000543346419091456,0.000383670331604728,0.0006017753693011,0.00152879211999728
1.33595993268308e-05,4.38839795775738e-05,2.31735718466496e-05,8.04171507510543e-05
9.00110551597439e-06,2.38039292484352e-05,1.49535687135509e-05,4.77586034779605e-05
8.79293543380098e-06,1.99585751028283e-05,1.51680612324007e-05,4.391957176903e-05
7.476243561683e-06,1.19651355566691e-05,1.07159011865413e-05,3.01572803048934e-05
6.84899812591588e-06,1.29832589204945e-05,1.18959275005223e-05,3.17281845469327e-05
6.07752808015018e-06,1.3154234095365e-05,1.08837749091354e-05,3.01155370846506e-05
5.17584877382545e-06,9.80554921587663e-06,8.99415553755187e-06,2.39755535272539e-05
9.06411691697032e-06,1.83493680521701e-05,1.18366437820896e-05,3.925012875123e-05
8.06037310487897e-06,2.2395543449349e-05,1.50162441367215e-05,4.54721606909494e-05
7.45581616601047e-06,1.5354607230414e-05,1.14961493153649e-05,3.43065727117894e-05
6.49095482109403e-06,8.90791890938063e-06,9.49538799644408e-06,2.48942617269187e-05
9.38578955852057e-06,2.50378452369335e-05,1.55054248057341e-05,4.99290596011881e-05
7.98199360180919e-06,1.90388634776798e-05,1.32422437654389e-05,4.02631008449279e-05
6.06723143538097e-06,1.02638387596731e-05,1.03576580271356e-05,2.66887282221896e-05
7.49976227263491e-06,1.65876319423835e-05,1.36505472238192e-05,3.77379414388376e-05
1.03552326785471e-05,3.47920744545269e-05,1.72678287950171e-05,6.24151359280912e-05
8.98966293824091e-06,2.50439786583182e-05,1.49406078729831e-05,4.89742494695422e-05
8.98376654338308e-06,2.65239774039686e-05,1.52628983476728e-05,5.07706422950245e-05
1.37001508435855e-05,4.72391192399096e-05,2.5402534407552e-05,8.63418044910472e-05
6.03034529976014e-06,9.99392611467694e-06,1.04555410863484e-05,2.64798125007854e-05
9.88454307614895e-06,1.7382930355637e-05,1.39261498462855e-05,4.11936232780715e-05
9.79295367247178e-06,2.72687201262279e-05,1.495531906117e-05,5.20169928598697e-05
7.87452381315679e-06,1.81093133622123e-05,1.38198559803054e-05,3.98036931556744e-05
4.76462662833468e-06,9.39243381392537e-06,9.59807672088119e-06,2.37551371631412e-05
7.04162269703096e-06,1.53847499494165e-05,1.16784885657308e-05,3.41048612121783e-05
8.20422232627067e-06,2.39390538576368e-05,1.69942634001089e-05,4.91375395840163e-05
5.08624104932912e-06,8.35109664770313e-06,9.61738552915576e-06,2.3054723226188e-05
6.66602175284127e-06,1.37322843433794e-05,1.1692793387334e-05,3.20910994835547e-05
5.8071314200551e-06,1.41393203712509e-05,1.25838678988825e-05,3.25303196901884e-05
6.88582461743946e-06,1.66599947600325e-05,1.26234521100359e-05,3.61692714875079e-05
6.01158756209637e-06,1.61414867017631e-05,1.27567179190354e-05,3.49097921828949e-05
6.08183350954508e-06,1.38061371673806e-05,1.13221186629065e-05,3.12100893398322e-05
9.07183327111623e-06,2.47275197226014e-05,1.73613341554587e-05,5.11606871491763e-05
8.6954158515341e-06,2.64066742866954e-05,1.80752911718582e-05,5.31773813100876e-05
9.28379379659918e-06,2.47480909369712e-05,1.80784184721144e-05,5.21103032056848e-05
7.64596914127552e-06,1.97166714342534e-05,1.53572059361116e-05,4.27198465116406e-05
4.50954891087647e-06,6.62536966235651e-06,8.81676746385784e-06,1.99516860370908e-05
5.95156009548127e-06,1.5602854903359e-05,1.22296139803317e-05,3.3784028979172e-05
4.52522181314998e-06,6.5831205910713e-06,8.81860419356312e-06,1.99269465977844e-05
4.35797727474667e-06,7.62705556958402e-06,8.24333317246993e-06,2.02283660168006e-05
3.72495381399548e-06,5.51175875143081e-06,8.52702499262056e-06,1.77637375580468e-05
3.84048744863181e-06,6.2491969348312e-06,8.25836844489065e-06,1.83480528283537e-05
2.90105628946374e-06,2.72475449127618e-06,6.84638342065888e-06,1.24721942013988e-05
7.74603770445162e-06,1.47554085992341e-05,1.36024415794173e-05,3.6103887883103e-05
8.46784783526737e-06,2.01133579664395e-05,1.65963581485061e-05,4.51775639502129e-05
7.0079091054505e-06,1.1682639734389e-05,1.11340391272961e-05,2.98245879671355e-05
7.4975403674023e-06,1.38286258841047e-05,1.2219777543601e-05,3.3545943795108e-05
1.00334359399762e-05,3.00580555270069e-05,2.05766941559412e-05,6.06681856229242e-05
1.00190491806423e-05,2.61682684676943e-05,1.75425125989531e-05,5.37298302472896e-05
8.42682546731154e-06,1.72864241450929e-05,1.48683517192682e-05,4.05816013316726e-05
7.22709944561074e-06,1.33184962377735e-05,1.29041783619897e-05,3.34497740453739e-05
6.04719916936334e-06,1.20884954787615e-05,1.15696740507758e-05,2.97053686989006e-05
6.27276053069594e-06,1.32786830940615e-05,1.12685974328548e-05,3.08200410576123e-05
8.91961118824147e-06,2.08715827294686e-05,1.56837316858737e-05,4.54749256035837e-05
1.02361703376692e-05,2.76060947104578e-05,2.01536959245557e-05,5.79959609726827e-05
4.75826241017734e-06,8.3167264097751e-06,1.05298171056906e-05,2.36048059256431e-05
3.36478688423651e-06,4.47182433922265e-06,8.78768833012574e-06,1.66242995535849e-05
4.58452064319955e-06,9.2136812147884e-06,1.11070673985258e-05,2.49052692565138e-05
3.07078960344314e-06,3.60986559096822e-06,7.54769795364997e-06,1.42283531480613e-05
3.59486835216275e-06,4.02223112441796e-06,8.16381136465305e-06,1.57809108412338e-05
4.29661615602158e-06,7.54530433007952e-06,9.82076784354176e-06,2.16626883296428e-05
6.75492168428883e-06,1.47028636534366e-05,1.1896618157903e-05,3.33544034956284e-05
4.11776381685567e-06,6.78021552881978e-06,8.81073515300702e-06,1.97087144986825e-05
3.48733433544202e-06,4.14905019622493e-06,7.78783412711147e-06,1.54242186587784e-05
5.51190869872739e-06,8.33988375198952e-06,9.43142496644434e-06,2.32832174171613e-05
0.000227063173308312,0.000149719656305975,0.000178515065554016,0.000555297895168303
8.29475252401298e-06,5.45669698842772e-05,1.2868847657612e-05,7.57305700659022e-05
5.93227215942855e-06,3.17352547299009e-05,1.0140173773469e-05,4.78077006627985e-05
3.99221891215306e-06,7.14599452272199e-06,7.64332705672689e-06,1.87815404916019e-05
8.1445634442789e-06,3.99533125551831e-05,1.16050148446599e-05,5.97028908441219e-05
8.57083452308837e-06,3.3277162242304e-05,1.16531666768807e-05,5.35011634422731e-05
5.71317439755989e-06,2.02848720421383e-05,9.35858182745063e-06,3.53566282671489e-05
7.04176338457943e-06,3.9987691427171e-05,1.15230643188782e-05,5.85525191306286e-05
5.9130375612496e-06,2.74871382889193e-05,1.07141550470481e-05,4.4114330897217e-05
5.04802382394404e-06,2.18663373574903e-05,1.08487191417954e-05,3.77630803232297e-05
3.14410887161313e-06,4.06602844761741e-06,7.01910262603772e-06,1.42292399452683e-05
4.06935974753851e-06,1.10418869518701e-05,8.54676510650793e-06,2.36580118059165e-05
4.54281717844983e-06,2.09428916752264e-05,1.13894967804076e-05,3.68752056340839e-05
4.95656362255687e-06,2.1171277326224e-05,1.16398156868104e-05,3.77676566355913e-05
5.14396396695655e-06,1.68883397061581e-05,1.04612479484289e-05,3.24935516215436e-05
4.67688620636425e-06,1.25459555110828e-05,9.75345451108179e-06,2.69762962285288e-05
2.98342479542057e-06,3.04817309861797e-06,6.5242955002225e-06,1.2555893394261e-05
6.90346378221551e-06,4.14820777207533e-05,1.56004013665554e-05,6.39859428695242e-05
8.1304081560165e-06,4.92707940016763e-05,1.61939452660009e-05,7.35951474236937e-05
7.79999615714067e-06,4.31047027163377e-05,1.50026120923144e-05,6.59073109657928e-05
4.67568936477477e-06,1.74845740929319e-05,9.01873185696446e-06,3.11789953146711e-05
6.37937759835727e-06,2.50055085713774e-05,1.05156315927251e-05,4.19005177624598e-05
7.32426705861325e-06,2.05233974359482e-05,9.51653973178341e-06,3.73642042263449e-05
3.50198832559259e-06,1.13317726150616e-05,7.61391162959427e-06,2.24476725702485e-05
3.37074384883924e-06,6.87383900518933e-06,6.71988896300619e-06,1.69644718170348e-05
2.96773205672592e-06,2.97232932833682e-06,6.16291454108879e-06,1.21029759261515e-05
3.66201870779622e-06,9.81579466754261e-06,7.98566332168836e-06,2.14634766970272e-05
5.84688410467259e-06,2.90821902059091e-05,1.22167631395094e-05,4.71458374500911e-05
2.96235689454034e-06,3.09313513485333e-06,6.40549090222216e-06,1.24609829316158e-05
5.1334486359019e-06,1.29632016097324e-05,8.75780323245932e-06,2.68544534780936e-05
4.44465264991594e-06,9.51620911634202e-06,7.71330877936389e-06,2.16741705456219e-05
3.80520759044215e-06,1.02209867971794e-05,8.152030477717e-06,2.21782248653385e-05
3.13200998458232e-06,3.49897783643581e-06,6.95894731163813e-06,1.35899351326563e-05
3.78809910227203e-06,1.32092215341055e-05,7.94071861076521e-06,2.49380392471427e-05
8.39844428493696e-06,4.87830972821579e-05,1.70353716435518e-05,7.42169132106467e-05
7.4816261170574e-06,5.11976770840675e-05,1.70745518570851e-05,7.575385505821e-05
7.06805635766991e-06,5.07943864534691e-05,1.68052586978807e-05,7.46677015090197e-05
6.1038982869443e-06,2.77814242387371e-05,1.32022862373208e-05,4.70876087630022e-05
4.95201278307377e-06,2.08619099958197e-05,1.02540486141387e-05,3.60679713930321e-05
4.9646852137026e-06,1.96338688745274e-05,1.12054380555603e-05,3.58039921437903e-05
5.11978608192539e-06,1.58078275378397e-05,9.87107071098163e-06,3.07986843307467e-05
9.09346984372924e-06,2.05850224523521e-05,1.20856781071213e-05,4.17641704032026e-05
4.59546675588851e-06,2.23820000710441e-05,9.45822823335242e-06,3.6435695060285e-05
4.97019466651048e-06,1.34783690668582e-05,7.75400695948066e-06,2.62025706928494e-05
0.000172642472892606,0.00350067269446465,0.00773962166712317,0.0114129368344804
2.97032642216362e-06,2.70703471293373e-06,7.80130809992517e-06,1.34786692350225e-05
7.69674856681272e-05,6.49436851580185e-05,4.6473858653554e-05,0.0001883850294797
1.02008246289826e-05,2.81134024875455e-05,1.18019279092889e-05,5.01161550258171e-05
4.61302184320319e-06,6.0650520869322e-06,8.01226172812026e-06,1.86903356582556e-05
8.15221769267272e-06,2.16306848986976e-05,1.25349581734474e-05,4.23178607648177e-05
7.26029068697042e-06,1.49557541514506e-05,9.44398519267718e-06,3.16600300310982e-05
8.09785750482864e-05,0.000111142128942592,0.00148469810791658,0.00167681881190746
3.24830983564285e-05,3.95987313450493e-05,2.2348725404015e-05,9.44305551054928e-05
3.98104197904376e-06,5.13609066053725e-06,7.93954988312476e-06,1.70566825227058e-05
4.04554380260103e-06,4.64625584127164e-06,8.44251199138228e-06,1.7134311635255e-05
5.44702502261388e-06,7.955932472616e-06,1.0400480056543e-05,2.38034375517729e-05
5.40885967097234e-06,6.66615358521918e-06,9.45352025855691e-06,2.15285335147484e-05
4.22546851651387e-06,5.2406267684451e-06,8.1338248101983e-06,1.75999200951573e-05
5.53414172713587e-06,5.73070097466634e-06,8.84716112129233e-06,2.01120038230945e-05
5.14821778473593e-06,6.10953825674457e-06,8.95922547509801e-06,2.02169815165785e-05
5.18555094364166e-06,6.44005094191242e-06,9.41984064082245e-06,2.10454425263765e-05
3.2173175868546e-05,2.16458118392898e-05,1.91486455720931e-05,7.2967633279929e-05
5.90404285278272e-06,1.16642488290747e-05,1.3050431807636e-05,3.06187234894934e-05
4.91797270773296e-06,8.93692173290638e-06,9.68960348823795e-06,2.35444979288773e-05
5.64692156624667e-06,7.14486111477361e-06,9.50005815465319e-06,2.22918408356735e-05
3.87447023081053e-06,4.43605727649939e-06,7.6793503141192e-06,1.59898778214291e-05
4.5631138852987e-06,5.30923789202305e-06,8.81492010558593e-06,1.86872718829077e-05
5.01291831471935e-06,8.56312022201081e-06,1.05372030280213e-05,2.41132415647515e-05
5.15966795428373e-06,1.04611239194182e-05,1.09603699458223e-05,2.65811618195243e-05
6.66657468992564e-06,1.02372063358261e-05,1.14545931355849e-05,2.83583741613366e-05
7.56493656720221e-06,1.21318705017518e-05,1.4172300477039e-05,3.3869107545993e-05
5.02444897868605e-06,7.99900001758873e-06,1.0536449390509e-05,2.35598983867838e-05
5.98967601394719e-06,1.1409901946785e-05,1.19640788552673e-05,2.93636568159996e-05
7.24463963851275e-05,3.94649619892366e-05,4.57071724074467e-05,0.000157618530781811
1.99073498646695e-05,1.33501691671153e-05,1.81050141780517e-05,5.13625332098364e-05
1.13591455453082e-05,1.65097250819102e-05,1.45327589893377e-05,4.24016296165561e-05
7.59526498067167e-06,1.09772623156476e-05,1.18705468855418e-05,3.04430741818611e-05
6.00470463298319e-06,7.51945334094981e-06,1.00366891294595e-05,2.35608471033925e-05
1.06234896585767e-05,1.3810013285639e-05,1.67031232739304e-05,4.11366262181461e-05
5.99464664418514e-06,8.90247581729679e-06,1.06866620892902e-05,2.55837845507721e-05
1.17703543723087e-05,1.33158121735955e-05,1.21614751089101e-05,3.72476416548143e-05
6.68814606287236e-06,6.07706092370158e-06,9.64074534514316e-06,2.24059523317171e-05
6.39513291513241e-06,4.72253233708563e-06,9.1314968861575e-06,2.02491621383755e-05
7.94943588236475e-06,6.9148722566837e-06,1.31244316819045e-05,2.79887398209529e-05
4.42139164614193e-06,4.62760576824255e-06,8.69987083455502e-06,1.77488682489395e-05
9.97585351024359e-06,5.11976004110316e-06,9.22163625999927e-06,2.4317249811346e-05
1.82747058766947e-05,3.28459841818734e-05,1.4425555220171e-05,6.55462452787391e-05
1.03813589123864e-05,3.11121312852788e-05,1.6591942453291e-05,5.80854326509562e-05
6.59826264349665e-06,1.24890072432326e-05,1.28992402201324e-05,3.19865101068616e-05
8.72045540752532e-06,2.58103792521344e-05,1.32969427971194e-05,4.78277774567791e-05
4.53783270356081e-06,5.48667997115644e-06,1.02620969562259e-05,2.02866096309431e-05
8.03313865645246e-06,2.06231019682047e-05,1.32492419468033e-05,4.19054825714604e-05
1.03608535217751e-05,3.11279467012534e-05,1.65435058298837e-05,5.80323060529122e-05
4.73935566507877e-06,9.76978946219917e-06,9.69425657491296e-06,2.42034017021909e-05
3.86397494111607e-06,4.88757396287402e-06,8.00101516181869e-06,1.67525640658088e-05
5.17839031624446e-06,8.48694405788774e-06,1.01048677763757e-05,2.37702021505079e-05
8.93263809513588e-06,1.72265556347336e-05,1.36260073509054e-05,3.97852010807749e-05
9.12634771590629e-06,2.5303664921176e-05,1.48684837008597e-05,4.92984963379419e-05
8.56825647522181e-06,1.44955911728403e-05,1.41514925882648e-05,3.72153402363269e-05
5.65115782928381e-06,1.14460761655865e-05,1.0811739983867e-05,2.79089739787373e-05
1.01029245623069e-05,2.89363618183639e-05,1.71498524568413e-05,5.61891388375121e-05
6.57574557644239e-06,1.12078952277833e-05,1.23658477887729e-05,3.01494885929986e-05
8.90459434398963e-06,2.2925878703199e-05,1.48420299850706e-05,4.66725030322592e-05
1.01094708953123e-05,2.33414798658956e-05,1.51483817441793e-05,4.85993325053872e-05
5.69085228707205e-06,9.11936038495855e-06,1.0488590454097e-05,2.52988031261276e-05
5.80577017954593e-06,1.0335986511602e-05,1.05605120204819e-05,2.67022687116299e-05
5.7460661307184e-06,1.07774630466962e-05,1.11264315806901e-05,2.76499607581048e-05
8.72712854984722e-06,1.61538441018448e-05,1.31787992799285e-05,3.80597719316205e-05
5.50983951892345e-06,1.0032735988611e-05,1.08878900802264e-05,2.64304655877609e-05
7.4636695152829e-06,1.11735438112248e-05,1.32227438593593e-05,3.18599571858669e-05
5.94286402544091e-06,8.59957839101037e-06,9.80172922455534e-06,2.43441716410066e-05
4.6870703892318e-06,9.72621383890103e-06,8.96563812402958e-06,2.33789223521624e-05
3.41936358492691e-06,4.12551772406075e-06,7.73659668087365e-06,1.52814779898613e-05
4.4545119894204e-06,6.49960257210635e-06,9.82954822274575e-06,2.07836627842725e-05
6.37009238126062e-06,1.17339605676814e-05,1.11786543368327e-05,2.92827072857748e-05
5.28386816045345e-06,1.2183500323455e-05,1.08520859680373e-05,2.83194544519458e-05
3.65957654642031e-06,5.0389175210416e-06,8.56028162983759e-06,1.72587756972995e-05
5.70702337240311e-06,8.40361610721866e-06,9.95108349200662e-06,2.40617229716284e-05
6.45761265502958e-06,1.01769689752364e-05,1.10269097187565e-05,2.76614913490225e-05
5.84557038463063e-06,1.4307282929377e-05,1.30839842031656e-05,3.32368375171733e-05
3.24614289300345e-06,3.60395805396231e-06,8.36219640532959e-06,1.52122973522953e-05
2.76839366298611e-06,2.60206666005265e-06,7.70770931397695e-06,1.30781696370157e-05
5.4038031698923e-06,1.15743632553319e-05,1.21351190888723e-05,2.91132855140965e-05
3.15588379634173e-06,3.36597519809691e-06,7.76257867856406e-06,1.42844376730027e-05
3.43846416305759e-06,4.59512893702115e-06,8.26092740890684e-06,1.62945205089856e-05
3.36037007704598e-06,3.40851713100289e-06,7.74080767868836e-06,1.45096948867372e-05
1.11349629767512e-05,1.42542663515977e-05,1.02278875516064e-05,3.56171168799554e-05
5.64615099187827e-06,1.25284413205196e-05,9.8161914745834e-06,2.79907837869812e-05
6.35863008740766e-06,1.47903079965211e-05,1.10913911561223e-05,3.2240329240051e-05
4.43593658216751e-06,8.06939550341592e-06,8.86403325605401e-06,2.13693653416374e-05
4.20318213802589e-06,6.70774814589371e-06,8.33307061024655e-06,1.92440008941662e-05
4.81808747948057e-06,6.63446194698516e-06,8.97659172165899e-06,2.04291411481247e-05
7.8480762546303e-06,2.34315267824235e-05,1.66858616343374e-05,4.79654646713911e-05
8.64570133282883e-06,1.95434966562757e-05,1.61848127049497e-05,4.43740106940542e-05
8.47342263443074e-06,2.05076744921886e-05,1.79792844033268e-05,4.69603815299462e-05
3.22709517697764e-06,3.9209853805798e-06,8.42738232005747e-06,1.55754628776149e-05
4.82041919459038e-06,1.13272693973189e-05,1.10814176933768e-05,2.7229106285286e-05
5.64501433000663e-06,1.07274508015826e-05,1.13047067445314e-05,2.76771718761206e-05
5.16878201555962e-06,8.80146199561113e-06,9.8954060859032e-06,2.38656500970739e-05
3.38045475689522e-06,3.01713985099207e-06,8.37877673109503e-06,1.47763713389823e-05
4.91903812763422e-06,5.87271103989154e-06,9.25214878566332e-06,2.00438979531891e-05
6.77457615464322e-06,1.74124452798382e-05,1.41272629440463e-05,3.83142843785276e-05
6.73584675187584e-06,1.07485266762533e-05,1.16973669957799e-05,2.9181740423909e-05
6.5691224681035e-06,9.78969104669034e-06,1.17887294889987e-05,2.81475430037925e-05
5.67265034828559e-06,7.97313828135738e-06,1.04185808657542e-05,2.40643694953972e-05
3.20209587877622e-06,2.98284721476644e-06,7.6340109483832e-06,1.38189540419259e-05
4.93843073926793e-06,8.58908174901954e-06,9.57098336388444e-06,2.30984958521719e-05
4.19443743536789e-06,6.85412669880031e-06,9.40872172349849e-06,2.04572858576667e-05
4.76927114234083e-06,6.50317843281127e-06,9.41852925035842e-06,2.06909788255105e-05
2.91392543777096e-06,2.55549164896545e-06,7.35121637831165e-06,1.28206334650481e-05
4.02526085151485e-06,7.17680205757424e-06,9.80294289160375e-06,2.10050058006928e-05
3.43001154303823e-06,4.75741105704194e-06,8.74788122179076e-06,1.69353038218709e-05
6.83721531985311e-06,1.52001514292987e-05,1.42787558741484e-05,3.63161226233003e-05
4.6713112466556e-06,6.86489154462225e-06,9.71441642359449e-06,2.12506192148723e-05
9.64625948139447e-06,9.60525287749962e-06,1.38603995774614e-05,3.31119119363555e-05
0.000139203397892253,9.99115188392193e-05,0.000100604875813421,0.000339719792544893
3.85708081016626e-06,3.20011627778901e-06,8.1998700651183e-06,1.52570671530736e-05
3.5969933402141e-06,3.46577210071192e-06,8.61281408277436e-06,1.56755795237004e-05
3.28619454964222e-06,3.90089618076272e-06,7.927384005909e-06,1.51144747363139e-05
3.07775964406122e-06,3.36920268921062e-06,7.78118240313095e-06,1.42281447364028e-05
3.34474765023505e-06,3.61437761096124e-06,7.83728912200626e-06,1.47964143832026e-05
3.01093412830242e-06,2.83151901930295e-06,7.86979506534246e-06,1.37122482129478e-05
3.04547933495439e-06,2.72004468835287e-06,7.59475580969978e-06,1.3360279833007e-05
3.94141067778875e-06,3.73304342655374e-06,1.08000901204422e-05,1.84745442247847e-05
3.49403496355422e-06,6.36647265356349e-06,8.62423424003296e-06,1.84847418571507e-05
8.02317464260103e-06,8.34720046909928e-06,1.02183515046023e-05,2.65887266163026e-05
5.79637455983205e-06,1.64261092350831e-05,1.12843103893419e-05,3.3506794184257e-05
2.25945906090135e-05,3.93696302684384e-05,3.40948327882481e-05,9.60590536657e-05
3.45762409711622e-05,2.42806525726984e-05,1.46854292723379e-05,7.35423228161986e-05
1.02183604835324e-05,2.31164306543028e-05,1.38055927261878e-05,4.71403838640231e-05
3.22166740337678e-06,3.58550050726672e-06,8.12517154292604e-06,1.49323394535695e-05
3.25415362445815e-06,5.07236982444511e-06,1.29379423085876e-05,2.12644657574909e-05
8.04380061989256e-06,1.07400927088627e-05,2.51289854890182e-05,4.39128788177734e-05
1.07797476831827e-05,1.66341581115415e-05,1.69539040547066e-05,4.43678098494308e-05
3.03793229581763e-06,2.65640971574561e-06,7.37842461585561e-06,1.30727666274189e-05
2.97986045622691e-06,2.52419384465227e-06,7.48571557566954e-06,1.29897698765487e-05
3.04322971782979e-06,2.71061693798609e-06,7.29099895765119e-06,1.30448456134671e-05
1.04659156660918e-05,1.95205597673704e-05,2.6499945868017e-05,5.64864213014792e-05
5.07611460676769e-06,1.32309650575398e-05,1.39040942783881e-05,3.22111739426956e-05
5.49778376998452e-06,1.38270928490054e-05,1.57712297500053e-05,3.50961063689953e-05
9.16581164370137e-06,2.25306891682352e-05,2.44156184160545e-05,5.6112119227991e-05
6.10034408805095e-06,9.47172366176963e-06,1.47607719313096e-05,3.03328396811301e-05
6.43186214648574e-06,9.46891548196093e-06,1.45354258087719e-05,3.04362034372186e-05
5.40825271070007e-06,8.55962286037343e-06,1.13987979597086e-05,2.53666735307821e-05
3.6033670633505e-06,3.61954802002882e-06,8.25194012245066e-06,1.547485520583e-05
4.6091514812652e-06,7.94621030788824e-06,1.05439240294945e-05,2.3099285818648e-05
4.64468885824439e-06,6.72321636420631e-06,1.03433955375134e-05,2.17113007599641e-05
9.24483516140596e-06,1.29966868738892e-05,1.34431708471374e-05,3.56846928824325e-05
6.54348779959329e-06,2.14082885943997e-05,1.52546233809757e-05,4.32063997749687e-05
5.69118422641194e-06,1.32660386957912e-05,1.39577448904335e-05,3.29149678126366e-05
8.15863527724328e-06,2.20322290156297e-05,1.94805987905445e-05,4.96714630834174e-05
3.15721851548758e-06,2.80085543215895e-06,7.38877808697078e-06,1.33468520346173e-05
2.9417385420834e-06,2.66283464965176e-06,6.88014851540352e-06,1.24847217071387e-05
7.45700741528355e-05,0.000391040417550797,0.000206690180737599,0.000672300672441231
5.86151237539385e-06,1.38675921209516e-05,1.36896333312728e-05,3.34187378276182e-05
9.59767901286486e-06,2.35033310942079e-05,1.7371257200319e-05,5.04722673073918e-05
5.12777931146747e-06,1.12168152731234e-05,1.2299284778666e-05,2.86438793632569e-05
4.09118110499641e-06,5.25463528564774e-06,8.30469393647053e-06,1.76505103271147e-05
4.33919328382035e-06,7.8788793250854e-06,9.34886547101532e-06,2.15669380799211e-05
4.26195190110798e-06,6.83742797048748e-06,9.43116574074812e-06,2.05305456123436e-05
5.81456127426945e-06,1.35520133730899e-05,1.264850521916e-05,3.20150798665193e-05
5.26401652180882e-06,6.57402151458572e-06,9.16207415701225e-06,2.10001121934068e-05
5.2161002338245e-06,8.04894629775118e-06,1.02747811566822e-05,2.35398276882579e-05
6.42137988966877e-06,1.50596513213708e-05,1.42760938857084e-05,3.5757125096748e-05
3.67455852466426e-06,5.71435340105167e-06,8.98641507612508e-06,1.8375327001841e-05
4.91526796671513e-06,8.13113078323117e-06,1.00510837820864e-05,2.30974825320327e-05
4.08501699892058e-06,8.1040502513743e-06,9.28582113418121e-06,2.14748883844761e-05
3.71350723873619e-06,4.62712339685254e-06,8.93629557681505e-06,1.72769262124038e-05
3.12835969876816e-06,3.74461463864305e-06,8.01883239106479e-06,1.4891806728476e-05
3.45308582462254e-06,3.17357244923592e-06,7.76947251069323e-06,1.43961307845517e-05
6.50004893808877e-06,1.57349484291839e-05,1.33440703612745e-05,3.55790677285472e-05
1.15688431979221e-05,3.73602396558233e-05,2.28435208350654e-05,7.17726036888108e-05
7.87950701498406e-06,2.25719315764861e-05,1.57746831956671e-05,4.62261217871372e-05
1.27744663518464e-05,4.32460583794011e-05,2.54706563885831e-05,8.14911811198306e-05
7.17630683934706e-06,1.13644010654664e-05,1.25974448024612e-05,3.11381527072747e-05
4.3179685788813e-06,7.17409723272785e-06,1.05716883577908e-05,2.20637541693999e-05
4.39762469330287e-06,8.98592333788542e-06,1.03410170207106e-05,2.37245650518989e-05
1.16711817884089e-05,2.59294568663741e-05,2.26474565517442e-05,6.02480952065273e-05
4.22665071261547e-06,6.74142644863942e-06,9.3337948281563e-06,2.03018719894112e-05
4.68258254446269e-06,1.01816503027013e-05,1.14256645486545e-05,2.62898973958185e-05
3.03729094461334e-06,3.27790022599465e-06,7.26974984494205e-06,1.358494101555e-05
3.40555885483698e-06,3.29347230370604e-06,7.75598178195234e-06,1.44550129404954e-05
5.12585412771915e-06,8.65767446523409e-06,1.1582413186153e-05,2.53659417791062e-05
6.27576088166069e-06,1.35154907182306e-05,1.12744832849204e-05,3.10657348848117e-05
5.81557430004833e-06,1.54041393836591e-05,1.39273277944052e-05,3.51470414781126e-05
4.35415421402054e-06,7.21239597741565e-06,1.01017504127138e-05,2.166830060415e-05
4.43792323603715e-06,1.14107624560141e-05,1.08526689440295e-05,2.67013546360808e-05
3.83450409936096e-06,5.56279549766712e-06,8.3860875841869e-06,1.7783387181215e-05
4.854820278441e-06,8.78287388234427e-06,1.10015974748449e-05,2.46392916356302e-05
5.49401536163987e-06,9.73195514242049e-06,1.14590045846589e-05,2.66849750887193e-05
6.24120129945493e-06,1.23537420361034e-05,1.39717935413486e-05,3.25667368769069e-05
1.33890431840158e-05,4.33401821370247e-05,2.6674005328442e-05,8.34032306494825e-05
2.13470132467991e-05,3.65747705416929e-05,3.02375329769011e-05,8.81593167653931e-05
3.5532565825114e-06,4.6430983628212e-06,8.11394408936675e-06,1.63102990346994e-05
8.22203522456519e-06,2.2661478252157e-05,2.52713195573733e-05,5.61548330340955e-05
7.71950207233895e-06,1.65944306063738e-05,1.99120543424291e-05,4.42259870211418e-05
2.74342278600521e-06,2.66751431328149e-06,7.15742312833848e-06,1.25683602276252e-05
2.83097429874448e-06,2.7434280092789e-06,7.01792482033402e-06,1.25923271283574e-05
3.03953808599508e-06,3.24002844560799e-06,7.76454741517993e-06,1.4044113946783e-05
6.27655404940008e-06,1.818447411823e-05,1.97119125337502e-05,4.41729407013803e-05
4.51784433018242e-06,8.51710446149696e-06,1.18140469266264e-05,2.48489957183058e-05
5.1724800303765e-06,1.18892569773531e-05,1.5597200161746e-05,3.26589371694756e-05
4.32759378755623e-06,6.29081596045499e-06,1.06150637179977e-05,2.12334734660089e-05
7.01876777327523e-06,9.7154039453807e-06,2.1532649573359e-05,3.82668212920149e-05
4.22561235769194e-06,6.61336796437537e-06,1.12688434327783e-05,2.21078237548456e-05
5.91042019272299e-06,1.47865366782987e-05,1.82993033063354e-05,3.89962601773571e-05
4.6090625278382e-06,1.00844481345371e-05,1.2873150233909e-05,2.75666608962843e-05
3.29091235610192e-06,4.42018172088145e-06,8.88156572272401e-06,1.65926597997074e-05
4.56952825428233e-06,1.19932137172376e-05,1.53030029690849e-05,3.18657449406048e-05
4.1139159305671e-06,7.47446119529983e-06,1.35808390091081e-05,2.51692161349751e-05
4.88971627691857e-06,1.05027849058766e-05,1.65535059406635e-05,3.19460071234588e-05
4.52641923553151e-06,8.53321448140332e-06,1.23380329515248e-05,2.53976666684596e-05
3.51017844559153e-06,4.5113382403864e-06,9.74544229981153e-06,1.77669589857895e-05
6.06998904421929e-06,1.91786583972447e-05,1.91957371573232e-05,4.44443845987872e-05
7.30083095399955e-06,2.02014355462465e-05,2.01923245458832e-05,4.76945910461292e-05
5.89985145917148e-06,1.00195339307581e-05,1.32533527853223e-05,2.91727381752519e-05
5.55982262477411e-06,8.85451860678794e-06,1.4130050987137e-05,2.85443922186991e-05
3.82419443319473e-06,6.25640371604364e-06,9.44588631864514e-06,1.95264844678835e-05
4.75221729899079e-06,7.83092516176702e-06,9.80312534962546e-06,2.23862678103833e-05
5.06236108390612e-06,1.19081466188483e-05,1.34385549680002e-05,3.04090626707547e-05
3.86785466220289e-06,7.19288965411624e-06,9.60391563784677e-06,2.06646599541659e-05
4.94670868976197e-06,8.97850422376556e-06,1.00914286326104e-05,2.40166415461379e-05
6.88535454752607e-06,1.95090829727138e-05,1.56141639260768e-05,4.20086014463167e-05
7.34960990674432e-06,2.1452734971071e-05,1.69369795388489e-05,4.57393244166643e-05
5.43011848098296e-06,1.07965442503132e-05,1.25587534030446e-05,2.87854161343407e-05
4.49307705418043e-06,1.00848480927938e-05,1.04807038370331e-05,2.50586289840073e-05
1.86207244773433e-05,5.51317758690141e-05,4.97508120259684e-05,0.000123503312372326
9.32389593069818e-06,2.69519866140287e-05,2.88153496050139e-05,6.50912321497407e-05
6.96940270168392e-06,1.53445288057434e-05,1.80247391027092e-05,4.03386706101365e-05
5.0189364109537e-06,7.18757860958241e-06,1.26435184534692e-05,2.48500334740053e-05
4.11880295614305e-06,5.98182904766951e-06,1.08091263578385e-05,2.0909758361651e-05
6.14328541414055e-06,1.2182201821649e-05,1.86457466622616e-05,3.69712338980512e-05
7.51387916719559e-06,1.54343561671806e-05,2.08780021547001e-05,4.38262374890764e-05
7.51337292179503e-06,1.42342041483295e-05,2.05867825405071e-05,4.23343596106317e-05
5.47891952342632e-06,9.29641309877998e-06,1.33954405996084e-05,2.81707732218147e-05
7.52347286860639e-06,1.2766250708113e-05,1.82329547020246e-05,3.8522678278744e-05
4.46667325713208e-06,6.72292078086285e-06,1.19169478128946e-05,2.31065418508895e-05
6.98036160772634e-06,9.08779953540145e-06,1.25826219942119e-05,2.86507831373397e-05
4.88884901519945e-06,6.44879837105405e-06,9.8414527913074e-06,2.11791001775609e-05
7.42679105805345e-06,1.57131424948743e-05,1.48110448070043e-05,3.79509783599321e-05
8.82235874367341e-06,2.26505697158393e-05,2.21226942626308e-05,5.35956227221435e-05
8.32959077212562e-06,1.61813023793201e-05,1.9086348846555e-05,4.35972419980007e-05
3.51626456027346e-06,5.13107370918552e-06,9.48733447775263e-06,1.81346727472116e-05
6.13325205684158e-06,1.19092664384897e-05,1.45731294990544e-05,3.26156479943856e-05
6.32124905784366e-06,1.22063042413946e-05,1.60105023287042e-05,3.45380556279424e-05
5.14146422810145e-06,1.10251609008794e-05,1.39741127414588e-05,3.01407378704397e-05
5.58075150207662e-06,1.00166383094347e-05,1.64955083843039e-05,3.20928981958152e-05
5.19563176600023e-06,9.83370750859907e-06,1.36750011985452e-05,2.87043404731445e-05
7.22853745381038e-06,1.81787618068904e-05,2.16365609893719e-05,4.70438602500727e-05
7.32183258743032e-06,1.89351490694286e-05,2.37474409047987e-05,5.00044225616577e-05
5.64778192410592e-06,8.22994120652247e-06,1.29248784555536e-05,2.6802601586182e-05
5.29653239677847e-06,8.1259129487035e-06,1.28466056621568e-05,2.62690510076387e-05
6.87191904957893e-06,1.42177666065296e-05,1.86502380902324e-05,3.97399237463409e-05
5.95508935320975e-06,1.37564837225716e-05,2.04633337634361e-05,4.01749068392175e-05
5.76811121043779e-06,9.74726731495675e-06,1.45254995583131e-05,3.00408780837076e-05
8.84016568768678e-06,2.51159925236227e-05,2.87395098251387e-05,6.26956680364482e-05
2.90140950316762e-06,3.13540887922506e-06,7.39419281789868e-06,1.34310112002914e-05
1.14966638228089e-05,1.68266220726997e-05,2.42777492760275e-05,5.26010351715361e-05
8.6860710607386e-06,2.20098478378443e-05,1.61561118861088e-05,4.68520307846917e-05
4.72294435020737e-06,9.69537436688087e-06,1.24695276336709e-05,2.68878463507591e-05
3.46879176592136e-06,5.59260962482511e-06,9.31430841860879e-06,1.83757098093553e-05
4.38457935545228e-06,7.71532548074595e-06,1.21269394675521e-05,2.42268443037503e-05
7.49057847820327e-05,5.45877054754153e-05,4.55253308554159e-05,0.000175018821112864
1.33446038191813e-05,2.25279958290113e-05,1.49336082457342e-05,5.08062078939267e-05
3.00533566492962e-06,3.42998189227506e-06,7.33843502786208e-06,1.37737525850668e-05
4.47753254838911e-06,7.09616149849522e-06,9.6006831706902e-06,2.11743772175745e-05
4.57755810495975e-06,8.19355695806627e-06,8.49401167922289e-06,2.12651267422489e-05
4.85792268348232e-06,9.27345081141323e-06,8.99042793793027e-06,2.31218014328258e-05
1.37832378120688e-05,2.22484799805336e-05,2.52203825634702e-05,6.12521003560727e-05
3.40721382820998e-05,2.85058427794737e-05,1.63620259637564e-05,7.89400070253299e-05
3.5330076065792e-06,4.32690336074584e-06,7.87844983566866e-06,1.57383608029937e-05
4.51793773329494e-06,7.17103823617478e-06,9.03618720555911e-06,2.07251631750288e-05
8.45866709530236e-06,8.7595751952614e-06,1.15339652665243e-05,2.87522075570881e-05
1.42428505590486e-05,1.24532571683488e-05,1.31250319220034e-05,3.98211396494008e-05
3.09859263014695e-06,3.11837274005612e-06,6.06590166740176e-06,1.22828670376048e-05
9.72946489582636e-06,2.63334567339352e-05,9.58440348772933e-06,4.56473251174909e-05
5.26302514580504e-06,1.39978500082568e-05,6.65360780938078e-06,2.59144829634426e-05
9.85989339041967e-06,3.2662228558389e-05,8.10155625271919e-06,5.06236782015279e-05
6.10055105196936e-06,1.85096303873155e-05,6.55333061059847e-06,3.11635120498833e-05
6.8186130574134e-06,2.18956166111136e-05,7.14318531276871e-06,3.58574149812957e-05
2.9454311146535e-06,3.21020960371925e-06,5.85654660509018e-06,1.20121873234629e-05
4.49413777916242e-06,1.45349626413088e-05,6.66772546714264e-06,2.56968258876139e-05
9.70299641488711e-06,3.29066503380191e-05,8.77170455281913e-06,5.13813513057254e-05
1.0919660778591e-05,4.50202796624655e-05,8.93447797729948e-06,6.4874418418356e-05
9.56152154472867e-06,3.50483631942144e-05,8.18690411288778e-06,5.27967888518308e-05
6.88971718490182e-06,1.16112071505092e-05,8.37899684159696e-06,2.6879921177008e-05
8.12467893439382e-06,1.34334284945502e-05,8.75110755548407e-06,3.03092149844281e-05
5.28284215074065e-06,1.12520630648004e-05,7.07376707827107e-06,2.36086722938121e-05
7.87694884112294e-06,7.99156849193747e-06,7.77384778031819e-06,2.36423651133786e-05
6.98683546280417e-06,6.92329859196723e-06,7.38259181114505e-06,2.12927258659165e-05
4.67734719086341e-06,5.86990221347257e-06,6.63946028128451e-06,1.71867096856205e-05
9.57763881858925e-06,1.15651869928172e-05,9.01528868848372e-06,3.01581144998902e-05
3.23276887489474e-06,2.68648635766148e-06,6.08589333313233e-06,1.20051485656886e-05
3.01139732309597e-06,2.69377832595419e-06,6.14042891641249e-06,1.18456045654626e-05
4.79425090143565e-06,6.05144296533489e-06,6.68578673314354e-06,1.75314805999141e-05
3.90719626028377e-06,4.44743208334177e-06,6.41407958754247e-06,1.4768707931168e-05
3.9150941736294e-06,6.93613573584508e-06,6.15426696704659e-06,1.70054968765211e-05
3.2165196834237e-06,4.86697741257453e-06,6.06811050612047e-06,1.41516076021187e-05
2.88204482308144e-06,2.68508010914737e-06,5.85052417916214e-06,1.1417649111391e-05
2.9175524451523e-06,2.67781535430017e-06,5.81146832613881e-06,1.14068361255913e-05
2.93047483912191e-06,2.64861594198734e-06,6.10240241830055e-06,1.16814931994098e-05
2.82539945781356e-06,2.62162195993292e-06,5.9438967592716e-06,1.13909181770181e-05
2.82857154353886e-06,2.56972096432895e-06,5.896227270022e-06,1.12945197778898e-05
4.71650384095229e-06,6.08305360519184e-06,7.38155290748103e-06,1.81811103536252e-05
7.09958205071645e-06,1.34404856672444e-05,8.25595649213427e-06,2.87960242100951e-05
3.37110793519227e-06,5.1239654854957e-06,5.74417644828861e-06,1.42392498689766e-05
4.83822929165459e-06,9.81481207686632e-06,6.42462330957616e-06,2.10776646780971e-05
5.73211688113951e-06,9.27800432940898e-06,6.92169793368825e-06,2.19318191442367e-05
4.46801844857768e-06,6.21012000528202e-06,5.9793235364835e-06,1.66574619903432e-05
1.43484221023335e-05,5.5729531313125e-05,1.04250062269283e-05,8.05029596423868e-05
4.27989670604613e-06,5.33925797433658e-06,6.59428704244131e-06,1.6213441722824e-05
7.51746114734585e-06,2.6427824194826e-05,7.59952485856036e-06,4.15448102007322e-05
6.43638771166585e-06,1.32395258798003e-05,7.17336932912573e-06,2.68492829205919e-05
7.891212879438e-06,3.42408649877621e-05,7.25323181012801e-06,4.93853096773281e-05
5.62686437843966e-06,1.70964991676352e-05,7.51494623211418e-06,3.0238309778189e-05
7.69714942230531e-05,3.58427777176415e-05,1.91851918911278e-05,0.000131999463831822
3.14852723890162e-06,3.180843914095e-06,8.39060042801694e-06,1.47199715810136e-05
3.00469912621637e-06,2.93287426567184e-06,7.98131989861915e-06,1.39188932905074e-05
5.37489684175575e-06,5.53383176650992e-06,1.02379919224379e-05,2.11467205307036e-05
4.23034291869111e-06,9.21563710232478e-06,1.29237636117264e-05,2.63697436327423e-05
3.90643839313398e-05,9.08570901489558e-05,6.24270130661978e-05,0.000192348487146493
3.06304695556645e-05,2.55957317484579e-05,1.74176288102623e-05,7.36438301143847e-05
3.87466844323236e-06,3.64048244652473e-06,8.54616020201193e-06,1.6061311091769e-05
6.24062165101061e-06,5.60972844637944e-06,9.78026470658481e-06,2.16306148039749e-05
4.21906966175593e-06,3.46389081622171e-06,8.34324040888889e-06,1.60262008868665e-05
5.45298001840447e-06,5.20925605132267e-06,8.84389559649911e-06,1.95061316662263e-05
3.93685479978067e-06,3.83646397889545e-06,8.1525854744326e-06,1.59259042531087e-05
5.93667408858201e-06,5.56408034723098e-06,1.45643269261396e-05,2.60650813619526e-05
0.000195491297029603,0.000102829780880881,0.000124659661802839,0.000422980739713323
3.4645125043116e-05,3.00870005897875e-05,3.57405061563165e-05,0.00010047263178922
6.8942221564564e-05,3.78223891183154e-05,5.10473716531154e-05,0.000157811982335995
3.10769460709928e-05,1.84093440027394e-05,3.27172857342869e-05,8.22035758080192e-05
3.21368768725955e-05,2.26086472188004e-05,3.19457130264023e-05,8.66912371177982e-05
1.63055214972481e-05,1.65993659015409e-05,2.37443002444073e-05,5.66491876431963e-05
0.000187310557225967,0.000268121953377838,0.000150009622269974,0.000605442132873779
0.00019277655816904,0.000385874563811172,0.000138830428414804,0.000717481550395017
0.000416106763790431,0.000287801854183842,0.000405170243084697,0.00110907886105897
0.00056012698291878,0.00179328531037134,0.000632592827448778,0.0029860051207389
0.000189124556277762,0.000551804082750192,0.0001610019017383,0.000901930540766253
0.000111352942289902,0.000137466690172385,9.11024110361057e-05,0.000339922043498393
3.26592542094124e-05,4.33568178375241e-05,7.754915922443e-05,0.000153565231271367
3.04079353012209e-05,2.79753810471145e-05,3.33474467984561e-05,9.17307631467915e-05
3.05947254262384e-05,2.94176830825831e-05,4.16909874876233e-05,0.000101703395996445
0.00010342855697431,0.000248699305076792,9.87058934298532e-05,0.000450833755480955
9.20480574840953e-05,0.000127783412040391,0.000128262032730894,0.00034809350225538
8.47897111073059e-05,8.5668955624078e-05,5.51896536967243e-05,0.000225648320428108
3.4607187652038e-05,6.32899440200977e-05,3.77095877712424e-05,0.000135606719443378
2.28795220566313e-05,2.45712011355058e-05,2.16226506396167e-05,6.90733738317538e-05
1.14861532341301e-05,1.16861103999659e-05,1.6786833089636e-05,3.99590967237319e-05
0.000448035954007739,0.00180893858312502,0.000625667089618056,0.00288264162675082
0.000274400483485921,0.000345479874123136,0.000124557849993655,0.000744438207602712
0.000123025892088466,0.000143698835997829,6.49132625489831e-05,0.000331637990635277
6.82538090480438e-05,6.75347450687826e-05,3.88599215088365e-05,0.000174648475625663
5.79515306278348e-05,8.18272868405917e-05,7.04420815531189e-05,0.000210220899021545
0.000159820515564588,0.000259834793633873,9.64820879273146e-05,0.000516137397125776
0.000414368339224769,0.00124994752975636,0.000387023830759547,0.00205133969974068
3.1047012726552e-05,2.32501281436318e-05,3.40597717206121e-05,8.83569125907958e-05
0.000164327347731337,0.000347152881220497,0.000160303331914241,0.000671783560866075
0.000260046567349692,0.000574063774347646,0.000165646925073788,0.000999757266771125
7.4760177790843e-05,0.000172820681983237,5.80794367067848e-05,0.000305660296480865
0.000108972092164602,0.000179034499837836,9.14487829240132e-05,0.000379455374926451
0.000166564203901656,0.000284691806110159,0.000110947445051435,0.00056220345506325
2.7104513725655e-05,1.6154119382374e-05,2.00666067841747e-05,6.33252398922038e-05
