potencia_x,potencia_y,potencia_z,potencia_total_xyz
9.03451302869487e-06,0.000322498860825107,0.000273601724727589,0.000605135098581391
1.13670734350261e-05,1.22122473296475e-05,2.20712903620001e-05,4.56506111266737e-05
0.000175777236271494,0.00024507068994178,0.000183463124938362,0.000604311051151636
2.80918548115879e-05,3.7709137485323e-05,0.00015568972979332,0.000221490722090231
0.000108521613914402,0.000218073026999969,0.00014728003471027,0.000473874675624641
0.000103345333996299,0.000168596103828913,0.000139544864960344,0.000411486302785556
0.000120806163059858,5.60013539188683e-05,8.22137102227894e-05,0.000259021227201515
8.93931911494638e-05,0.000185077387107122,0.000143032419763519,0.000417502998020104
0.000241513901594328,0.000544399267334329,0.000283908891750752,0.00106982206067941
0.000214446077794681,0.000479335621557211,0.000339347620981499,0.00103312932033339
0.000515679069388415,0.00213581314773744,0.00155799401717719,0.00420948623430304
0.000257574253435053,0.00140052603577761,0.000963073464859504,0.00262117375407217
0.00035815373776386,0.00175269037619681,0.000931953776358596,0.00304279789031927
0.000358175125724372,0.000827271668629106,0.000574837691069204,0.00176028448542268
0.000238624454608647,0.000717039801164993,0.000352235979094788,0.00130790023486843
6.02870010464322e-05,2.44377019806506e-05,9.01708522712049e-05,0.000174895555298288
3.17322885369853e-05,1.36402204414829e-05,5.02657310463338e-05,9.5638240024802e-05
1.73304334179403e-05,9.34431603358282e-06,4.61383197010151e-05,7.28130691525382e-05
2.50105508429356e-05,1.35290349716427e-05,3.63804503899928e-05,7.49200362045711e-05
1.08038286988378e-05,5.27412267975734e-06,2.28924337617402e-05,3.89703851403354e-05
7.6900563278219e-06,4.34325118446449e-06,1.82479598373354e-05,3.02812673496218e-05
8.97406263547952e-06,5.2542981414376e-06,2.00519437927054e-05,3.42803045696226e-05
1.02060329899684e-05,6.74804388783558e-06,2.03251220375928e-05,3.72791989153968e-05
1.03466700455117e-05,6.23284732335693e-06,1.88179250861724e-05,3.5397442455041e-05
1.27408449910954e-05,6.42118098307438e-06,1.72002478383774e-05,3.63622738125472e-05
6.6840638631162e-06,4.05949497155373e-06,1.68113060589123e-05,2.75548648935822e-05
1.95941269300805e-05,9.16600213219085e-06,2.53370558512742e-05,5.40971849135456e-05
2.09992274706743e-05,1.16785106068682e-05,2.74487539502729e-05,6.01264920278155e-05
0.000157258260607722,0.000294778486109729,0.000359760725590218,0.000811797472307668
5.15884075254304e-05,9.32653503897752e-05,5.47923289003223e-05,0.000199646086815528
3.875423095711e-05,0.000125103494841736,6.05642303779972e-05,0.000224421956176843
5.40689477216554e-05,9.18457924375451e-05,6.18792195692013e-05,0.000207793959728402
0.000191602459477808,0.000153536173852524,0.000172202954080064,0.000517341587410396
4.36151152522375e-05,2.66195624892185e-05,4.16300509965608e-05,0.000111864728738017
1.70882436345487e-05,1.256867760974e-05,2.26249021092187e-05,5.22818233535074e-05
9.19521410729031e-06,4.52109283382338e-06,1.79544211525629e-05,3.16707280936766e-05
7.7158037388497e-06,4.23723404377962e-06,1.43122371455731e-05,2.62652749282024e-05
9.55796327922266e-06,5.51901729906023e-06,1.46749708321941e-05,2.9751951410477e-05
6.04100065773536e-06,3.33695575701588e-06,1.25202582704951e-05,2.18982146852463e-05
6.85897317933738e-06,3.73089897670654e-06,1.32228371807364e-05,2.38127093367803e-05
5.47609784837108e-06,3.07666007261854e-06,1.17985007662781e-05,2.03512586872677e-05
7.24185303541996e-06,4.98048702412475e-06,1.44409061890219e-05,2.66632462485666e-05
5.68762040300652e-06,3.69386288045853e-06,1.15495653230863e-05,2.09310486065513e-05
4.17755459700414e-06,2.87744417090233e-06,1.06410548042784e-05,1.76960535721848e-05
9.08418947112945e-06,7.21911822677685e-06,1.14672288205673e-05,2.77705365184736e-05
4.14676096374292e-06,3.05542933555463e-06,9.47411599674505e-06,1.66763062960426e-05
7.1003768853655e-06,5.96010753985857e-06,1.17178444386042e-05,2.47783288638283e-05
8.46701805295348e-06,4.03111387455296e-06,1.14013291898538e-05,2.38994611173602e-05
6.70697303640887e-06,3.5897573594222e-06,1.11379699160946e-05,2.14347003119257e-05
8.94090401886945e-06,5.47329002167075e-06,1.28875982372312e-05,2.73017922777714e-05
5.84668091217088e-05,2.99724894927026e-05,4.79368996792922e-05,0.000136376198293704
4.08780759659602e-05,2.79507696128574e-05,2.76916863409432e-05,9.65205319197608e-05
2.32565586232269e-05,2.34147449931762e-05,3.05283507410209e-05,7.71996543574239e-05
7.71694877118172e-06,5.06331270543542e-06,1.56780217963717e-05,2.84582832729889e-05
4.84432584754046e-06,3.63083048371713e-06,1.22800452956471e-05,2.07552016269047e-05
1.82859068070571e-05,1.41009440866766e-05,2.44316876716235e-05,5.68185385653572e-05
9.57684917961863e-06,7.22568987193845e-06,1.28826575208021e-05,2.96851965723592e-05
3.71311696584603e-05,1.91945541584189e-05,3.07213141170458e-05,8.7047037933925e-05
2.3489262439839e-05,1.36469047405051e-05,2.07284818221178e-05,5.7864649002462e-05
7.12211305518319e-06,4.59069220244497e-06,1.42360129962743e-05,2.59488182539024e-05
3.34126323164503e-05,2.30748304798749e-05,2.97314159888618e-05,8.6218878785187e-05
4.11526513503245e-05,1.99218726036587e-05,2.67822767986881e-05,8.78568007526712e-05
3.81169682900382e-05,1.34865001382312e-05,2.90470753007317e-05,8.06505437290011e-05
2.29826219478296e-05,2.20234446465497e-05,2.40367242308361e-05,6.90427908252154e-05
7.93437309502026e-06,4.85712874314121e-06,1.27643654566259e-05,2.55558672947874e-05
7.37018490756072e-06,5.78599645642628e-06,1.22161135636538e-05,2.53722949276408e-05
7.50691324286198e-06,4.65839736866087e-06,1.1856025145088e-05,2.40213357566108e-05
1.52669683698778e-05,1.20203664841699e-05,1.87300997949188e-05,4.60174346489665e-05
1.17410222039078e-05,9.11207505644813e-06,1.67827518666218e-05,3.76358491269777e-05
1.1923336098951e-05,1.29672455578768e-05,1.47517676642703e-05,3.96423493210981e-05
1.355195088922e-05,1.70865568260349e-05,1.3665490965405e-05,4.43039986806599e-05
9.8627110835462e-06,1.32432634797197e-05,1.23653975053988e-05,3.54713720686646e-05
9.79564557112061e-06,1.10636742653042e-05,1.2455541524325e-05,3.33148613607498e-05
1.49439581671026e-05,1.65685549589579e-05,1.45003988355797e-05,4.60129119616402e-05
1.14560024711826e-05,9.99934462401397e-06,1.47092272794567e-05,3.61645743746533e-05
2.08327427553777e-05,1.87734324397091e-05,1.89538763768448e-05,5.85600515719316e-05
1.21158992192789e-05,1.21092413945979e-05,1.59773569787985e-05,4.02024975926753e-05
1.27233470793661e-05,1.39291443175049e-05,1.73169390526544e-05,4.39694304495254e-05
1.06302751321966e-05,1.53925073041709e-05,1.39330380342434e-05,3.99558204706109e-05
1.58946216294486e-05,1.33814634134674e-05,2.05680628340764e-05,4.98441478769925e-05
6.59622843722421e-06,6.3671979530117e-06,1.32151518329162e-05,2.61785782231522e-05
1.02573750683737e-05,2.04034812835098e-05,1.9514859112784e-05,5.01757154646674e-05
7.71504875606938e-06,7.03178810665393e-06,1.40026667764578e-05,2.87495036391811e-05
9.32192240383113e-06,1.02168433292269e-05,1.5498401491793e-05,3.5037167224851e-05
1.99766908700062e-05,2.81052057463472e-05,2.32007741769185e-05,7.12826707932718e-05
5.73256177668453e-06,4.29583851827427e-06,1.18351383363835e-05,2.18635386313423e-05
7.87122470315515e-06,5.38562932155915e-06,1.26351725491461e-05,2.58920265738604e-05
8.57922869258876e-06,6.24553861291726e-06,1.43626051914688e-05,2.91873724969748e-05
2.42963837773381e-05,4.25491793105112e-05,4.61842327568712e-05,0.00011302979584472
9.62874498347295e-06,6.38053927767988e-06,1.50655107630831e-05,3.10747950242359e-05
1.15747609367222e-05,1.6560211236529e-05,1.72026531486792e-05,4.53376253219304e-05
1.00985674642028e-05,1.08327162500056e-05,1.46874769731858e-05,3.56187606873943e-05
7.75307961991505e-06,9.60824926638224e-06,1.52556017076893e-05,3.26169305939866e-05
1.41571622541687e-05,1.67427083453267e-05,1.94111952311566e-05,5.03110658306519e-05
1.09370076566888e-05,1.20560391064562e-05,1.71062537781567e-05,4.00993005413016e-05
1.21188285157035e-05,1.64357619768305e-05,1.83346443969273e-05,4.68892348894612e-05
7.73066183511924e-06,4.59835514859853e-06,1.24805235728161e-05,2.48095405565339e-05
8.11471650781775e-06,7.65704128719142e-06,1.30881630385073e-05,2.88599208335164e-05
1.70084025174268e-05,1.28777787247387e-05,1.38152593479878e-05,4.37014405901532e-05
1.83136814263242e-05,3.30835434020603e-05,2.38793348123758e-05,7.52765596407604e-05
1.59320859269868e-05,2.11085239440308e-05,2.06844777124231e-05,5.77250875834407e-05
6.29720650090823e-06,5.40213270635518e-06,1.15787449495634e-05,2.32780841568268e-05
9.16439822995726e-06,6.8903576385222e-06,1.42752352155971e-05,3.03299910840766e-05
9.45839090136475e-06,8.37969123300986e-06,1.31954080265825e-05,3.10334901609571e-05
5.20093131838026e-06,4.03530087761019e-06,1.09486871299549e-05,2.01849193259454e-05
7.88016236151674e-06,7.30208111657985e-06,1.3991282709513e-05,2.91735261876096e-05
3.89028299142451e-06,3.17746083461968e-06,1.02090566502517e-05,1.72768004762958e-05
4.72250924212399e-06,3.26073361484657e-06,9.81504858035546e-06,1.7798291437326e-05
4.21522291375083e-06,3.21531198001786e-06,9.28959083307684e-06,1.67201257268455e-05
1.25466830039202e-05,2.09314274260829e-05,1.79375400582694e-05,5.14156504882726e-05
1.10203092603645e-05,1.36582060124036e-05,1.42595070801178e-05,3.89380223528858e-05
2.95430455623287e-05,4.86219045274746e-05,5.03955339925286e-05,0.000128560484082332
1.35825590751163e-05,2.13564505237899e-05,2.08924175985655e-05,5.58314271974717e-05
1.06958800697078e-05,1.57421659721233e-05,1.44581853216362e-05,4.08962313634674e-05
9.96065683047038e-06,1.28604474397879e-05,1.38542429309332e-05,3.66753472011915e-05
4.79639489347127e-06,3.7275697766068e-06,9.27892686697153e-06,1.78028915370496e-05
4.20963624360015e-06,3.11234356050093e-06,1.01058235936955e-05,1.74278033977966e-05
3.97716275171189e-06,3.05052976570945e-06,9.33772845638354e-06,1.63654209738049e-05
3.66523511666944e-06,2.79950543459137e-06,8.30059668956292e-06,1.47653372408237e-05
5.1843494303413e-06,5.07804729307575e-06,9.76192333121078e-06,2.00243200546278e-05
1.68528458835131e-05,1.77287686019454e-05,1.70458848720271e-05,5.16274993574856e-05
1.68187172607658e-05,1.52124841504254e-05,1.87688680107759e-05,5.08000694219671e-05
7.78108297228622e-06,6.20323249823415e-06,1.16296179153493e-05,2.56139333858696e-05
1.16955604567107e-05,2.04036947896622e-05,1.49474830552598e-05,4.70467383016327e-05
1.03449411303541e-05,9.76168497817281e-06,1.25340256150148e-05,3.26406517235416e-05
4.52440412034141e-06,2.97175517393085e-06,9.42681298132884e-06,1.69229722756011e-05
7.8292361683525e-06,8.92163044134354e-06,1.1729027118766e-05,2.84798937284621e-05
7.45779380236161e-06,6.43394752364404e-06,1.10922297787072e-05,2.49839711047129e-05
4.59023924931852e-06,3.41863413669083e-06,8.58030368207251e-06,1.65891770680819e-05
3.70513962744819e-06,2.94488896463899e-06,8.51107215027978e-06,1.5161100742367e-05
5.09991552698217e-06,3.42706038423262e-06,9.71578525686138e-06,1.82427611680762e-05
6.87521380170254e-06,9.33191064171044e-06,1.16842327953011e-05,2.78913572387141e-05
9.3351781639513e-06,8.23940260739382e-06,1.53543095439699e-05,3.2928890315315e-05
5.50423834252865e-06,5.04037525141269e-06,9.9849382613569e-06,2.05295518552982e-05
3.8029349731146e-06,3.76384082442154e-06,9.37337350200636e-06,1.69401492995425e-05
4.40683379819795e-06,3.68711314514142e-06,9.75433279053584e-06,1.78482797338752e-05
4.73151337165899e-06,4.34991526406137e-06,1.11762638744319e-05,2.02576925101522e-05
1.13695417815647e-05,6.4861409488356e-06,1.20102567194941e-05,2.98659394498944e-05
4.49181524588535e-06,3.68937263495866e-06,9.07977306745238e-06,1.72609609482964e-05
3.29344212699199e-06,2.68299246665056e-06,8.03047097893342e-06,1.4006905572576e-05
7.65881637180033e-06,5.2883415245608e-06,1.17903879635612e-05,2.47375458599223e-05
5.76745776898114e-06,4.57713045362418e-06,1.03844502148318e-05,2.07290384374371e-05
6.3061720828846e-06,5.37556637176672e-06,1.18270049427177e-05,2.35087433973691e-05
7.14269019730716e-06,7.32500095737095e-06,1.06943769912967e-05,2.51620681459748e-05
1.23748536064285e-05,8.21999877718203e-06,1.37028925548067e-05,3.42977449384172e-05
7.60450413507167e-06,7.8883743554346e-06,1.26581208267695e-05,2.81509993172757e-05
1.74893196302677e-05,1.33093751758262e-05,1.81788012956526e-05,4.89774961017465e-05
7.96110086096315e-06,7.57481478594026e-06,1.31498133478856e-05,2.8685728994789e-05
4.93064139518969e-06,3.87936276702891e-06,9.65952764229687e-06,1.84695318045155e-05
4.80102375930302e-06,3.76652371381918e-06,1.02220105251721e-05,1.87895579982943e-05
4.99730455521257e-06,4.05405383425616e-06,1.10130322222278e-05,2.00643906116965e-05
7.69362217749837e-06,7.52352502091661e-06,1.27947391684001e-05,2.8011886366815e-05
5.06245456885262e-06,4.55876490808905e-06,1.09404926988954e-05,2.05617121758371e-05
1.17808841350239e-05,1.28342768179514e-05,1.62643779715206e-05,4.08795389244959e-05
1.38973151872136e-05,1.61152042595116e-05,1.68042053356449e-05,4.68167247823701e-05
9.75593464383928e-05,0.000539736994191105,0.000134006597815515,0.000771302938445013
4.84825804404663e-05,2.23130990955503e-05,3.74524294098139e-05,0.00010824810894583
5.0232941283384e-06,3.56125010603461e-06,1.02602248035943e-05,1.88447690379673e-05
5.28780163371006e-06,3.36850365841325e-06,9.93157572792446e-06,1.85878810200478e-05
1.0080051969546e-05,8.11424471673713e-06,1.57283975164587e-05,3.39226942027419e-05
1.49435976665232e-05,9.89973698366764e-06,2.1087777399096e-05,4.59311120492868e-05
1.23474138948545e-05,6.84038253402192e-06,1.78261434644089e-05,3.70139398932854e-05
1.80311136026269e-05,7.44524107628445e-06,1.90073633846679e-05,4.44837180635793e-05
1.8737569911117e-05,1.52132911524609e-05,2.36546875638058e-05,5.76055486273837e-05
9.05315876971459e-06,8.04329952088814e-06,1.68306336152642e-05,3.39270919058669e-05
8.19060549091605e-06,5.817564653712e-06,1.265833253782e-05,2.6666502682448e-05
8.87585153869573e-06,6.99182688157124e-06,1.62284069963218e-05,3.20960854165888e-05
8.77867779389213e-06,9.32133932998129e-06,1.64174045513071e-05,3.45174216751806e-05
6.02374202572957e-06,4.74886115964018e-06,1.40531306015841e-05,2.48257337869539e-05
1.92061161671076e-05,1.75494861611865e-05,3.30533071790741e-05,6.98089095073681e-05
6.1523293244585e-06,5.84714232351048e-06,1.43522269540792e-05,2.63516986020482e-05
9.87090136710087e-06,1.54874904303401e-05,2.14894263711423e-05,4.68478181685832e-05
1.09001167477657e-05,1.11887421290367e-05,1.57677242894674e-05,3.78565831662697e-05
2.03624253583925e-05,1.51603173520761e-05,2.61854907829802e-05,6.17082334934488e-05
1.06926778369448e-05,7.28751586239825e-06,1.86484857861371e-05,3.66286794854802e-05
1.0459217971308e-05,7.81682035688032e-06,2.02440001052172e-05,3.85200384334055e-05
8.06669219126747e-06,6.54707024030326e-06,1.81276887234528e-05,3.27414511550235e-05
4.1698107299051e-06,3.24559292637357e-06,9.58691700083073e-06,1.70023206571094e-05
1.40913205106245e-05,8.99612704243262e-06,1.81601515446811e-05,4.12475990977382e-05
1.33486057873939e-05,9.90080225804073e-06,2.11761979465704e-05,4.4425605992005e-05
1.40798563130288e-05,1.05974794395903e-05,2.60316646099093e-05,5.07090003625284e-05
5.72737547581609e-06,4.30875683294709e-06,1.2333678022995e-05,2.23698103317582e-05
3.89982457223765e-06,2.78445048277621e-06,8.58266986822686e-06,1.52669449232407e-05
3.78229644033178e-06,2.75008388558923e-06,9.06712062097861e-06,1.55995009468996e-05
6.98008706094395e-06,5.33144163532967e-06,1.30411280300478e-05,2.53526567263214e-05
4.73603689091156e-06,3.08675416157106e-06,1.00718357124606e-05,1.78946267649432e-05
1.41699859021338e-05,1.1582978771514e-05,1.73704557928847e-05,4.31234204665326e-05
6.09220283590728e-06,4.03115033960389e-06,1.12418473308461e-05,2.13652005063573e-05
7.71317224132451e-06,6.94004621419965e-06,1.26787632915262e-05,2.73319817470503e-05
5.40381021516152e-06,3.44988852434517e-06,9.96464947732868e-06,1.88183482168354e-05
4.68734315896428e-06,3.1372723564432e-06,1.08983705929798e-05,1.87229861083872e-05
4.07476401234099e-06,3.01592806715128e-06,1.01041393499747e-05,1.7194831429467e-05
1.28042601437757e-05,6.48245031379637e-06,1.32243630157818e-05,3.25110734733539e-05
9.94692082497659e-06,6.04878126544347e-06,1.5001791963605e-05,3.09974940540251e-05
5.19075312546701e-06,3.24482318580386e-06,1.04419329676764e-05,1.88775092789473e-05
4.65156467383551e-06,3.20633420572983e-06,1.04262307569641e-05,1.82841296365294e-05
4.47184289725241e-06,3.11710072195811e-06,9.62498449747589e-06,1.72139281166864e-05
4.43636047809495e-06,3.1333168706694e-06,1.02521927262075e-05,1.78218700749719e-05
1.46905934623291e-05,1.12807499333733e-05,2.15941489975989e-05,4.75654923933013e-05
7.79676762411135e-06,7.08612078045601e-06,1.48836182537013e-05,2.97665066582687e-05
1.02556594925371e-05,9.55758072021421e-06,2.09126355599174e-05,4.07258757726687e-05
1.58470948692784e-05,1.04788566724989e-05,2.25098854598068e-05,4.88358370015841e-05
1.60667127033173e-05,1.24514438923975e-05,1.97914977403578e-05,4.83096543360726e-05
6.25003034458463e-06,4.44936999083369e-06,1.06951306225184e-05,2.13945309579367e-05
5.25452836628702e-06,3.18032005053288e-06,9.36044929152523e-06,1.77952977083451e-05
4.40571598272188e-06,3.09088029202066e-06,9.20923538807968e-06,1.67058316628222e-05
3.98129063781539e-06,2.95821906397154e-06,9.5998070843146e-06,1.65393167861015e-05
1.00242686157496e-05,8.01983032347089e-06,1.5491904527824e-05,3.35360034670445e-05
6.50779400532791e-06,3.89115710757671e-06,1.09283200316753e-05,2.13272711445799e-05
1.13191455446089e-05,8.22200507506153e-06,1.47307032269766e-05,3.4271853846647e-05
5.75369246136903e-06,3.58192899767947e-06,1.2453586298079e-05,2.17892077571275e-05
1.64132230574504e-05,4.73436738803453e-05,7.05141955080601e-05,0.000134271092445856
1.36477995330893e-05,1.31449856672042e-05,1.74271963200675e-05,4.4219981520361e-05
1.06867984278621e-05,2.62139976341187e-05,3.20065498321708e-05,6.89073458941516e-05
9.65595769005416e-06,1.64572590550141e-05,2.7248967125529e-05,5.33621838705973e-05
7.6733246180606e-06,1.28619523352722e-05,2.61592134172597e-05,4.66944903705925e-05
1.59444844203427e-05,1.71653416358616e-05,2.84956298202671e-05,6.16054558764715e-05
6.34746274173498e-06,6.79742192364194e-06,1.55114667304636e-05,2.86563513958406e-05
1.25753301109341e-05,1.45944512767451e-05,2.6773413070582e-05,5.39431944582612e-05
1.29131752957312e-05,2.6878931296246e-05,3.82910668409833e-05,7.80831734329604e-05
1.3460072049187e-05,1.62617053373594e-05,2.93055517049398e-05,5.90273290914862e-05
7.54170792049588e-06,1.06246961385334e-05,2.21483399762986e-05,4.03147440353278e-05
8.90398746681894e-06,1.21882636744301e-05,2.45613962222349e-05,4.56536473634839e-05
8.25794695151097e-06,1.19323825485774e-05,2.54082244904321e-05,4.55985539905204e-05
3.16642534843797e-06,2.74454965420973e-06,8.08949647779164e-06,1.40004714804393e-05
1.4068834862433e-05,1.40565906350124e-05,2.00558495127467e-05,4.81812750101921e-05
8.60024702294022e-06,5.95245089640915e-06,1.28794428394503e-05,2.74321407587997e-05
1.69001277684114e-05,1.0602017077588e-05,2.10951440903922e-05,4.85972889363915e-05
1.75633974169379e-05,9.10709538743983e-06,1.56990665752639e-05,4.23695593796416e-05
1.3858634041835e-05,8.37466739507418e-06,1.71851243087965e-05,3.94184257457057e-05
9.50077704271679e-06,5.61794010680047e-06,1.54998457571413e-05,3.06185629066586e-05
1.69257786511807e-05,1.13513833559698e-05,2.12951996061248e-05,4.95723616132753e-05
2.9117462975731e-05,2.12621531250997e-05,3.24298681863047e-05,8.28094842871354e-05
1.13197761454843e-05,9.03188445170001e-06,1.73467578653567e-05,3.7698418462541e-05
7.52728899038394e-06,5.83748929372607e-06,1.53494373981338e-05,2.87142156822438e-05
6.80422908004459e-06,6.02315451495735e-06,1.26689024637457e-05,2.54962860587476e-05
6.97694634403429e-06,6.5254269768422e-06,1.56021631119411e-05,2.91045364328176e-05
6.69690209231143e-06,6.44728442492044e-06,1.46984539182811e-05,2.78426404355129e-05
7.82282198628393e-06,5.37530654370251e-06,1.33608740863223e-05,2.65590026163087e-05
7.18229550079875e-06,5.20702560037991e-06,1.39662066120136e-05,2.63555277131922e-05
9.02308195962711e-06,7.38393382505473e-06,1.75196407057551e-05,3.39266564904369e-05
1.44615357811353e-05,1.45263805511605e-05,2.12763659617059e-05,5.02642822940016e-05
9.69422137003076e-06,7.83754132212486e-06,1.57548720181022e-05,3.32866347102578e-05
1.62494811708883e-05,1.59586955740984e-05,2.52648909923025e-05,5.74730677372891e-05
1.34029656977737e-05,1.43590341289901e-05,2.17161605457345e-05,4.94781603724982e-05
8.12593775388924e-06,9.58397205326069e-06,1.55291088310993e-05,3.32390186382492e-05
7.57355016383921e-06,9.63970031216268e-06,1.54176301488003e-05,3.26308806248022e-05
6.9893734385565e-06,8.94695072188443e-06,2.05045865674272e-05,3.64409107278681e-05
1.10428251413071e-05,9.67364043822574e-06,2.05348717455056e-05,4.12513373250385e-05
8.22224270275362e-06,7.80203832574554e-06,1.57373490874505e-05,3.17616301159497e-05
1.13401424688472e-05,7.90088682053483e-06,1.83062174540414e-05,3.75472467434234e-05
7.49615078602091e-06,5.13757567058803e-06,1.24233769317895e-05,2.50571033883984e-05
6.94041662743639e-06,4.6963672471801e-06,1.10078637897027e-05,2.26446476643192e-05
9.92078069232042e-06,7.10256442125284e-06,1.37443729956462e-05,3.07677181092195e-05
6.81723362120084e-06,6.22055477663897e-06,1.30676428577893e-05,2.61054312556291e-05
4.76405891726946e-06,3.91073249973861e-06,1.15671339115507e-05,2.02419253285588e-05
7.89278284829611e-06,7.63970062380811e-06,1.25421457846391e-05,2.80746292567433e-05
1.89628848976769e-05,2.30290090445371e-05,2.83187743794055e-05,7.03106683216195e-05
5.48422193279309e-06,4.0475703496529e-06,9.87839903723461e-06,1.94101913196806e-05
9.6549662845321e-06,8.70751799076821e-06,1.68378056833329e-05,3.52002899586332e-05
1.2909273999503e-05,9.10345713262256e-06,1.42294468403611e-05,3.62421779724866e-05
5.99166274732769e-06,4.10483643233909e-06,1.10342573295221e-05,2.11307565091889e-05
7.45125560745993e-06,6.06887173812408e-06,1.35499143022446e-05,2.70700416478287e-05
1.07483894255112e-05,9.62110150126988e-06,1.31319455688982e-05,3.35014364956793e-05
1.32353423703591e-05,1.72315891750373e-05,4.56443602989352e-05,7.61112918443316e-05
4.86940353594252e-06,3.64039650190535e-06,1.22902104622909e-05,2.08000105001387e-05
1.16225629485377e-05,1.1871033092652e-05,2.00225220013254e-05,4.3516118042515e-05
7.13334741079941e-06,5.86920328823195e-06,1.42750962868898e-05,2.72776469859212e-05
3.40625304375276e-06,3.02181999041189e-06,1.01378172316907e-05,1.65658902658554e-05
3.36387506060287e-06,2.87415854338675e-06,9.17929102337389e-06,1.54173246273635e-05
3.55516720085467e-06,2.93625540818826e-06,9.28806490824298e-06,1.57794875172859e-05
3.78743250268526e-06,3.03281766029911e-06,8.93637032486183e-06,1.57566204878462e-05
3.62092534404529e-06,3.10790016625827e-06,9.36295363995145e-06,1.6091779150255e-05
3.52134989897246e-06,3.18380382231214e-06,9.00723008317355e-06,1.57123838044582e-05
9.41735587689504e-06,7.5369069222081e-06,1.96882746962531e-05,3.66425374953562e-05
3.51087361387039e-06,3.27924027919842e-06,9.37126347586452e-06,1.61613773689333e-05
3.43529431011636e-06,3.19313659200203e-06,9.25508337841964e-06,1.5883514280538e-05
8.64643421001843e-06,1.06595496937052e-05,1.77735793080869e-05,3.70795632118105e-05
5.34055274693677e-06,5.56648741284127e-06,1.15597466064404e-05,2.24667867662185e-05
6.81499376927245e-06,1.05430121153548e-05,1.65535493144334e-05,3.39115551990606e-05
8.63049842031474e-06,1.17997037262337e-05,1.7453721797058e-05,3.78839239436064e-05
6.44991527700775e-06,8.80447071141653e-06,1.57688543882719e-05,3.10232403766962e-05
8.15394576200236e-06,1.31041266774489e-05,2.00531208764958e-05,4.1311193315947e-05
9.78572541715171e-06,1.44304668831611e-05,1.88984151993382e-05,4.31146074996511e-05
1.57574507388116e-05,1.38290660642185e-05,2.20208984134353e-05,5.16074152164654e-05
4.78045733307106e-06,3.63348671776769e-06,8.67430811887097e-06,1.70882521697097e-05
8.10450786142739e-06,1.47961855375675e-05,1.93150834552937e-05,4.22157768542886e-05
7.01508003862721e-06,1.00733287017407e-05,1.93682302601906e-05,3.64566390005585e-05
1.2361512640582e-05,1.47528933087721e-05,2.68579412056103e-05,5.39723471549645e-05
2.18740290270522e-05,2.86399779296476e-05,4.46445636710543e-05,9.51585706277542e-05
1.51397811428578e-05,1.62666206779957e-05,2.19510396443465e-05,5.33574414652e-05
9.44602923245965e-06,1.05452144080147e-05,1.4357502648056e-05,3.43487462885303e-05
3.74144614332701e-06,2.78137152549233e-06,7.76320300216158e-06,1.42860206709809e-05
1.19529394774821e-05,1.64873676156315e-05,2.19154723475155e-05,5.03557794406291e-05
4.48121323307592e-06,3.83441510973977e-06,9.84679830229106e-06,1.81624266451067e-05
1.03394076096325e-05,8.36296994724708e-06,1.60794403903008e-05,3.47818179471804e-05
8.22828407417616e-06,1.55235187564333e-05,1.97715191494136e-05,4.35233219800231e-05
1.06220150786563e-05,1.7437489517472e-05,1.81668513701294e-05,4.62263559662577e-05
3.86523302550797e-06,3.51277537223425e-06,8.74129486590972e-06,1.61193032636519e-05
1.78510708983767e-05,1.48131807605428e-05,2.57332855645393e-05,5.83975372234588e-05
6.157084965881e-06,4.59932477052502e-06,1.26911789632369e-05,2.34475886996429e-05
1.08518539490937e-05,1.00248191497234e-05,1.7533469257428e-05,3.84101423562451e-05
1.02222839672821e-05,1.06749348558576e-05,1.33835372114481e-05,3.42807560345878e-05
1.36103219531312e-05,1.02631872811719e-05,1.63289804443986e-05,4.02024896787016e-05
8.71602784781176e-06,6.11660176404484e-06,1.23710435694811e-05,2.72036731813377e-05
1.02062937179913e-05,6.26902730313643e-06,1.11224232517374e-05,2.75977442728652e-05
3.88527058055631e-06,3.04656000571815e-06,9.04097530538417e-06,1.59728058916586e-05
7.21163341575967e-06,5.60423965789056e-06,1.09318032656103e-05,2.37476763392605e-05
8.07960674455535e-06,5.94075602804202e-06,1.12047268510065e-05,2.52250896236039e-05
1.40186968376833e-05,9.46851765282444e-06,1.72933307794173e-05,4.07805452699251e-05
6.68835908013364e-06,9.28889966738737e-06,1.43372426756977e-05,3.03145014232187e-05
6.93251946010053e-06,5.98610589725331e-06,1.21199565670297e-05,2.50385819243835e-05
7.02066938829456e-06,8.28530610335024e-06,1.38617788393871e-05,2.91677543310319e-05
8.50728960514348e-06,9.13549447383049e-06,1.36480228455052e-05,3.12908069244791e-05
5.5850602290868e-06,7.03613173871798e-06,1.13960884067936e-05,2.40172803745983e-05
5.71484064864945e-06,7.30016230628022e-06,1.26921867530917e-05,2.57071897080214e-05
5.44322433391702e-06,7.31902047528995e-06,1.18868076546723e-05,2.46490524638793e-05
5.53502716330596e-06,5.914517480495e-06,1.07202768327028e-05,2.21698214765037e-05
4.83823908787464e-06,4.21226509743658e-06,1.01120525540926e-05,1.91625567394039e-05
7.05057824961876e-06,7.82096737515338e-06,1.28592355135685e-05,2.77307811383406e-05
1.07215818562374e-05,1.38243875922825e-05,1.6387603524277e-05,4.09335729727969e-05
5.32605860444883e-06,3.49084385253998e-06,1.06261167629425e-05,1.94430192199313e-05
2.59640289253509e-05,2.79736387604333e-05,3.23069167432779e-05,8.62445844290621e-05
9.69080708921886e-06,1.15056446110675e-05,1.6789194900357e-05,3.79856466006433e-05
1.71101606469282e-05,2.14987701316604e-05,2.2135528513128e-05,6.07444592917166e-05
1.61824864389015e-05,2.95643272501827e-05,5.45760857864389e-05,0.000100322899475523
8.13975623247683e-06,1.05078327760135e-05,1.58790266277701e-05,3.45266156362604e-05
5.98944243389239e-06,9.13908708524594e-06,1.45022018032758e-05,2.96307313224141e-05
7.72714323956955e-06,1.37845224857186e-05,2.06334084829592e-05,4.21450742082474e-05
6.24201988333829e-06,5.40251977789125e-06,1.3686172114614e-05,2.53307117758435e-05
6.16732483350491e-06,1.00340486451823e-05,1.35319455882455e-05,2.97333190669327e-05
4.36835509478137e-06,5.78339878939151e-06,1.16144629067232e-05,2.17662167908961e-05
6.08007622686694e-06,6.68889307969208e-06,1.24108213317461e-05,2.51797906383051e-05
8.53956300401255e-06,1.23056159873139e-05,1.6568137444343e-05,3.74133164356695e-05
7.04816741627992e-06,9.92079964343816e-06,1.52679280638828e-05,3.22368951236009e-05
5.21230025046737e-06,8.20313828178358e-06,1.51009323766687e-05,2.85163709089197e-05
4.89632206137646e-06,8.17637034913041e-06,1.40487711906406e-05,2.71214636011474e-05
5.76883901356898e-06,1.00149323323409e-05,1.45773756341872e-05,3.03611469800971e-05
1.15066881595936e-05,1.0925799054757e-05,1.78122756927998e-05,4.02447629071504e-05
1.75506109117113e-05,1.43104503579497e-05,2.01636464745529e-05,5.20247077442139e-05
3.09701144362006e-05,2.84126617292933e-05,3.54566974313135e-05,9.48394735968074e-05
7.795357190891e-06,6.77481969459191e-06,1.32611611158753e-05,2.78313380013583e-05
5.13434941631377e-06,3.43920462835907e-06,1.136014012507e-05,1.99336941697429e-05
1.2252286575551e-05,8.45296436830187e-06,2.02972618954666e-05,4.10025128393195e-05
1.33937765014262e-05,1.03977119199044e-05,1.56225254098737e-05,3.94140138312043e-05
8.91899455544244e-06,7.42582874803049e-06,1.26918554344718e-05,2.90366787379447e-05
1.40781677113563e-05,1.11186152559442e-05,1.70921746668571e-05,4.22889576341577e-05
5.05506887026906e-06,3.56848563566583e-06,1.0018064070204e-05,1.86416185761389e-05
7.40964843122188e-06,6.70656892374409e-06,1.2318545094049e-05,2.6434762449015e-05
6.62094590636768e-06,5.82971356957849e-06,1.17554360656639e-05,2.420609554161e-05
5.7430908857591e-06,4.2797413627597e-06,1.06395561984312e-05,2.066238844695e-05
5.35949576631827e-06,5.72828533294766e-06,1.18199051376789e-05,2.29076862369448e-05
1.23250538196613e-05,1.49610367439811e-05,2.1849886028455e-05,4.91359765920974e-05
7.60795924209039e-06,1.18060618124284e-05,1.62632612341636e-05,3.56772822886824e-05
6.89856362744213e-06,1.20453341809246e-05,1.64195183879189e-05,3.53634161962856e-05
6.11783921847443e-06,7.92565147218898e-06,1.46073997433348e-05,2.86508904339982e-05
8.74953856353392e-06,1.44541810843001e-05,1.72740484579066e-05,4.04777681057407e-05
1.13540097875013e-05,1.02946927860662e-05,2.29127959973642e-05,4.45614985709317e-05
5.15646331310145e-06,3.81677823183384e-06,1.14008134419951e-05,2.03740549869304e-05
3.92692587584088e-06,2.99345887626195e-06,9.61206036063119e-06,1.6532445112734e-05
1.86765132792254e-05,1.73189430474919e-05,1.94619997538577e-05,5.5457456080575e-05
7.1437781442196e-06,9.32839349558329e-06,1.30215099270793e-05,2.94936815668822e-05
3.18397257415051e-06,2.52912688470528e-06,7.56963579946556e-06,1.32827352583213e-05
1.11123174427525e-05,9.97293911293067e-06,1.72054344752729e-05,3.82906910309561e-05
3.30607420408347e-06,2.5951031385606e-06,7.75981923379331e-06,1.36609965764374e-05
3.11879297909677e-06,2.5227409439407e-06,7.35314273551603e-06,1.29946766585535e-05
9.08961884194972e-06,8.10258625038048e-06,1.17456463090709e-05,2.89378514014011e-05
3.20724047108537e-05,1.7159940900076e-05,2.89325853690067e-05,7.81649309799364e-05
1.16723883285654e-05,9.74389376135589e-06,1.73457860910942e-05,3.87620681810154e-05
5.96231491215561e-06,8.92443223368339e-06,1.46605221651096e-05,2.95472693109486e-05
4.30500691891586e-06,5.60810099762399e-06,1.30817679309571e-05,2.2994875847497e-05
9.23689922904893e-06,1.37330705750323e-05,1.87921403677429e-05,4.17621101718241e-05
6.54195594014089e-06,8.45170761473538e-06,1.70999772415362e-05,3.20936407964124e-05
1.09931450059423e-05,9.58302716343182e-06,1.68475155085109e-05,3.74236876778851e-05
1.47153283012888e-05,1.67921170539325e-05,2.29477427511487e-05,5.445518810637e-05
0.000136346770387486,0.000141953015931812,0.000163801774868545,0.000442101561187843
1.47678627727284e-05,7.58709644692003e-06,1.94959842512525e-05,4.18509434709009e-05
9.5795416822568e-06,4.25755982869981e-06,1.19484413272358e-05,2.57855428381924e-05
6.53400172495467e-06,4.49286261943631e-06,1.17468492770537e-05,2.27737136214447e-05
3.90629399038537e-06,3.11779205885407e-06,8.74458809219126e-06,1.57686741414307e-05
4.73455852316073e-06,3.31937573850365e-06,8.55872825980901e-06,1.66126625214734e-05
6.10882547863797e-06,3.8103418074056e-06,1.02905262127719e-05,2.02096934988155e-05
6.01706723697289e-06,3.56534343008062e-06,9.076523288136e-06,1.86589339551895e-05
4.96374076200299e-06,3.53255952174761e-06,9.26941004946018e-06,1.77657103332108e-05
5.63813225417488e-06,4.3940242453512e-06,1.10073835242154e-05,2.10395400237415e-05
3.98434372121828e-06,2.98559388658129e-06,8.46794966164704e-06,1.54378872694466e-05
4.54460384835593e-06,3.18715990515964e-06,8.35753166613142e-06,1.6089295419647e-05
7.76801620502869e-05,6.97166382704787e-05,9.91287833001038e-05,0.000246525583620869
5.4737412851931e-05,5.86038415716818e-05,8.90400499155426e-05,0.000202381304339155
1.63253810995074e-05,8.49334633786554e-06,2.03721750215661e-05,4.5190902458939e-05
1.26403871682214e-05,7.62845245705164e-06,1.47772149380147e-05,3.50460545632878e-05
2.33361765562222e-05,1.69211925244414e-05,1.98553176436764e-05,6.011268672434e-05
1.47232208060831e-05,9.88459011614668e-06,1.68727876540376e-05,4.14805985762674e-05
3.65069838606554e-06,3.07053812138108e-06,9.65578133975292e-06,1.63770178471995e-05
5.55037371528838e-06,4.44894739407628e-06,1.12119618901136e-05,2.12112829994783e-05
1.0501955372529e-05,7.82477107599482e-06,1.39769327254981e-05,3.2303659174022e-05
3.51941906025982e-06,3.2424898392857e-06,7.8487393416052e-06,1.46106482411507e-05
1.34497090730575e-05,1.3964216995469e-05,1.50414545464147e-05,4.24553806149412e-05
3.45975668656366e-06,3.55409641465896e-06,8.65113637666806e-06,1.56649894778907e-05
3.22174836239417e-06,3.85530479634095e-06,9.12713361186161e-06,1.62041867705967e-05
1.0832668527065e-05,1.02317390000111e-05,1.56680977474026e-05,3.67325052744787e-05
3.59870417001777e-06,3.16855932898229e-06,7.8718411221223e-06,1.46391046211224e-05
3.06516474914075e-06,2.96508378504211e-06,7.41037994956487e-06,1.34406284837477e-05
4.20335772079029e-06,6.18612689230007e-06,9.57258244964223e-06,1.99620670627326e-05
2.75212470604999e-06,2.45285682660481e-06,6.81724058521064e-06,1.20222221178654e-05
2.87309845375783e-06,2.45606898218696e-06,6.86944472532377e-06,1.21986121612686e-05
2.89170818834233e-06,2.58145315796091e-06,7.06912885799277e-06,1.2542290204296e-05
2.88378701020632e-06,2.46821274019887e-06,6.98097945535705e-06,1.23329792057622e-05
1.67573637097179e-05,2.01890718160874e-05,3.06920803942709e-05,6.76385159200762e-05
5.95376078100777e-06,5.12300736001239e-06,9.62467518864022e-06,2.07014433296604e-05
3.30864645173863e-06,2.66407385508363e-06,8.11289395704115e-06,1.40856142638634e-05
3.47449918875809e-06,2.74798093783091e-06,8.35087670572498e-06,1.4573356832314e-05
3.458067117996e-06,2.77057998537734e-06,8.09120950157902e-06,1.43198566049524e-05
7.03407865434025e-05,4.52647959155417e-05,6.53964082756597e-05,0.000181001990734604
3.12929551633066e-06,2.91731669243752e-06,8.23119330625968e-06,1.42778055150279e-05
3.04219466369263e-06,2.71601124138213e-06,8.47505263710541e-06,1.42332585421802e-05
1.02440178195746e-05,6.27246337081429e-06,1.31038197957363e-05,2.96203009861252e-05
1.58284276907762e-05,9.85169695325361e-06,1.4090108032525e-05,3.97702326765549e-05
2.97356257716951e-06,2.5882791136292e-06,7.35890752409705e-06,1.29207492148958e-05
3.30930243592961e-06,2.74125946272592e-06,7.75414674014646e-06,1.3804708638802e-05
3.09449630817882e-06,2.70321528148171e-06,7.39071645526533e-06,1.31884280449259e-05
3.4948019288548e-06,2.66349175603268e-06,7.42927741698981e-06,1.35875711018773e-05
4.21531036930845e-06,3.51450956182658e-06,8.2203076105762e-06,1.59501275417112e-05
3.02730030260343e-06,2.96424029609672e-06,7.36229080047975e-06,1.33538313991799e-05
3.08337702786855e-06,2.73794600307704e-06,7.35624005592174e-06,1.31775630868673e-05
2.78413690845408e-06,2.5970449141678e-06,7.52329288020939e-06,1.29044747028313e-05
3.14882861816536e-06,2.7995749230957e-06,8.07580844782451e-06,1.40242119890856e-05
3.32071358588051e-06,2.97384823927657e-06,7.43245495654518e-06,1.37270167817023e-05
3.7037079897132e-06,3.04268358213382e-06,8.08785814026655e-06,1.48342497121136e-05
3.81011535561042e-06,3.0475061469731e-06,7.94146294986856e-06,1.47990844524521e-05
2.82471963154687e-06,2.59237553245239e-06,7.25128347089235e-06,1.26683786348916e-05
2.90920938335237e-06,2.70831713863746e-06,7.18857055947674e-06,1.28060970814666e-05
3.44817654682775e-06,2.94459829358625e-06,7.81222303946718e-06,1.42049978798812e-05
4.0794099559465e-06,3.93270990702556e-06,8.42633090417583e-06,1.64384507671479e-05
2.98086413621225e-06,2.42970506869206e-06,7.25381098733258e-06,1.26643801922369e-05
2.83202209968473e-06,2.37242805792498e-06,6.82400605954606e-06,1.20284562171558e-05
2.88643486078886e-06,2.4919344155475e-06,7.08392596806099e-06,1.24622952443973e-05
7.21109775450272e-06,5.63185588920914e-06,1.01551854819158e-05,2.29981391256277e-05
3.01341188455646e-06,2.84000249012855e-06,6.90125414354087e-06,1.27546685182259e-05
2.86096825290422e-06,2.79853714422391e-06,6.9341116404881e-06,1.25936170376162e-05
5.4281175673653e-06,6.69748514070943e-06,9.73081996592476e-06,2.18564226739995e-05
3.44204376845402e-06,2.83762352451173e-06,7.80394778892349e-06,1.40836150818892e-05
3.88479201725981e-06,3.53870355846406e-06,8.44164789760745e-06,1.58651434733313e-05
3.06383283220755e-06,2.88789835976965e-06,7.44411811461617e-06,1.33958493065934e-05
2.61044843437384e-06,2.58600818848613e-06,7.08035056670146e-06,1.22768071895614e-05
7.59858769688706e-06,5.8944758230908e-06,1.01636459693447e-05,2.36567094893226e-05
3.24770387713368e-06,2.78275580359033e-06,7.0278907554094e-06,1.30583504361334e-05
4.36108495947339e-06,3.5901870967667e-06,8.72905020745983e-06,1.66803222636999e-05
4.3417546732255e-06,3.42867830615292e-06,9.21635300289554e-06,1.6986785982274e-05
3.39508273832209e-06,2.80980771160924e-06,8.1724904896442e-06,1.43773809395755e-05
3.82525097668363e-06,3.16715938377803e-06,8.09129145626061e-06,1.50837018167223e-05
6.35033365905384e-06,7.61912068248777e-06,1.03397029417486e-05,2.43091572832902e-05
3.71954793471517e-06,3.93423554410067e-06,8.07135877531792e-06,1.57251422541338e-05
2.782720474216e-06,2.59062736891074e-06,6.87310647174214e-06,1.22464543148689e-05
4.14179318360062e-06,5.02306779348862e-06,8.33658615425764e-06,1.75014471313469e-05
5.61747296888667e-06,7.58377546368412e-06,1.17775531478829e-05,2.49788015804537e-05
2.94194651122758e-06,4.16766504026251e-06,8.37000625923661e-06,1.54796178107267e-05
2.66750544699488e-06,2.8564615862766e-06,6.91291827144933e-06,1.24368853047208e-05
1.61084808440936e-05,1.59125955651072e-05,2.17951143214982e-05,5.38161907306991e-05
6.07948638203931e-06,4.74859231450764e-06,9.6485067501197e-06,2.04765854466666e-05
9.71423882449887e-06,7.41108297545134e-06,1.42425423517579e-05,3.13678641517081e-05
5.88615746231573e-06,4.28855482371244e-06,1.03618646903555e-05,2.05365769763837e-05
3.31133959636227e-06,3.34088478700849e-06,7.6213348468664e-06,1.42735592302372e-05
3.50847892856984e-06,3.33161194044579e-06,7.45033808175401e-06,1.42904289507696e-05
3.17444801816893e-06,3.40559554986016e-06,7.78012023406651e-06,1.43601638020956e-05
5.04316035603994e-06,5.00090788329209e-06,1.01098699802073e-05,2.01539382195393e-05
3.0184707866165e-06,3.25220877783035e-06,7.80259543621338e-06,1.40732750006602e-05
1.52598164356356e-05,1.26062191597362e-05,1.88316760123155e-05,4.66977116076874e-05
8.92356785910584e-06,7.44037817474894e-06,1.374805517118e-05,3.01120012050347e-05
1.03675225376582e-05,6.003455592604e-06,1.5273309813431e-05,3.16442879436932e-05
9.73799565039149e-06,6.02328254994579e-06,1.36607028747917e-05,2.9421981075129e-05
5.45885036538434e-06,6.1026908264745e-06,1.32965733252402e-05,2.4858114517099e-05
3.98408179940903e-06,4.13011955802438e-06,9.9966777071991e-06,1.81108790646325e-05
3.73897509039668e-06,3.81411783586455e-06,9.34628038382156e-06,1.68993733100828e-05
3.12629037407743e-06,3.0551764374726e-06,8.12369339448976e-06,1.43051602060398e-05
3.10034023383261e-06,2.93477084397842e-06,8.15083132489724e-06,1.41859424027083e-05
3.09812098778704e-06,2.89435232776511e-06,7.85357934336914e-06,1.38460526589213e-05
3.08903198446754e-06,2.93751692436797e-06,8.2916581987848e-06,1.43182071076203e-05
2.97426857152563e-06,2.80109470503088e-06,7.38694592873853e-06,1.3162309205295e-05
1.09303867080855e-05,8.78797203220491e-06,1.35842742730803e-05,3.33026330133707e-05
4.98903572736701e-05,3.61157821678372e-05,5.89096524727092e-05,0.000144915791914216
1.45153961686076e-05,7.07641398891597e-06,1.71662804151642e-05,3.87580905726878e-05
1.60280588649385e-05,9.61023414694451e-06,1.66117169658371e-05,4.22500099777201e-05
4.44180080139535e-06,3.66995506751819e-06,9.37391739956563e-06,1.74856732684792e-05
3.29503868647681e-06,2.9510323431738e-06,8.30416958483448e-06,1.45502406144851e-05
3.49191032380571e-06,3.13060277391775e-06,9.05121949898046e-06,1.56737325967039e-05
3.50931762511097e-06,2.9449734019734e-06,8.00829117622451e-06,1.44625822033089e-05
3.49135850493642e-06,2.9972597588758e-06,8.45583974225989e-06,1.49444580060721e-05
3.28388270958329e-06,3.09326548776955e-06,8.59521053380452e-06,1.49723587311574e-05
3.51249960523882e-06,2.82736264783557e-06,8.05774949879359e-06,1.4397611751868e-05
4.93081367521295e-06,5.49793878412322e-06,9.8056387318105e-06,2.02343911911467e-05
3.084823371809e-06,2.73161042988901e-06,7.85001301016192e-06,1.36664468118599e-05
2.89053330965585e-06,2.62701871146199e-06,7.28290313130237e-06,1.28004551524202e-05
2.89602302660307e-06,2.64408418611828e-06,7.62554538043277e-06,1.31656525931541e-05
3.10828144342471e-06,2.73055886091645e-06,7.92437117364103e-06,1.37632114779822e-05
3.99408014114979e-06,3.15966710062593e-06,9.5269509000767e-06,1.66806981418524e-05
3.07743984632917e-06,2.74847800234156e-06,7.80513651005571e-06,1.36310543587264e-05
3.2029324213167e-06,2.86424584884673e-06,8.03127432480289e-06,1.40984525949663e-05
3.99564535272453e-06,2.85323193050456e-06,8.40269977101107e-06,1.52515770542402e-05
4.66719983351807e-06,3.75517838670254e-06,9.64862100345275e-06,1.80709992236733e-05
3.47510249076844e-06,3.06295564804506e-06,8.21324081656155e-06,1.47512989553751e-05
4.75869639372759e-06,3.30581747821045e-06,8.59822239292494e-06,1.6662736264863e-05
5.50049183549628e-06,3.84736442101739e-06,1.04108967322969e-05,1.97587529888106e-05
5.12373309328415e-06,4.37618023552749e-06,9.38685011933821e-06,1.88867634481498e-05
3.78907119902334e-06,3.16916334125145e-06,8.05908406361297e-06,1.50173186038878e-05
9.43291423409808e-06,7.0309384835848e-06,1.38760826807906e-05,3.03399353984735e-05
2.8858034407458e-06,2.61262644911693e-06,7.56580319500724e-06,1.306423308487e-05
3.54189051303348e-06,3.07825689751518e-06,8.09821716995195e-06,1.47183645805006e-05
3.31846155357902e-06,2.93678497007179e-06,7.95922013405159e-06,1.42144666577024e-05
2.92293138812034e-06,2.70070671471944e-06,7.50538796971601e-06,1.31290260725558e-05
6.8826070604615e-05,4.03444468519865e-05,4.17558079226996e-05,0.000150926325379301
4.36488407344546e-06,3.60522990466112e-06,9.81243343453911e-06,1.77825474126457e-05
3.68114397100381e-06,3.24267290281509e-06,9.12643934197578e-06,1.60502562157947e-05
3.11370196238424e-06,2.81461080480838e-06,8.25175716677243e-06,1.4180069933965e-05
7.66278223807439e-06,6.19744733493144e-06,1.04719282301667e-05,2.43321578031726e-05
5.75197805107863e-06,3.95313262311251e-06,9.51957609081656e-06,1.92246867650077e-05
3.16512805867412e-06,2.90164361209877e-06,8.16023549237676e-06,1.42270071631496e-05
4.33375864333561e-06,3.49843059517167e-06,8.80081914127974e-06,1.6633008379787e-05
5.24844140432025e-06,4.75109327123237e-06,9.24006136740109e-06,1.92395960429537e-05
4.80631192960456e-06,3.61825296431979e-06,9.03563631272435e-06,1.74602012066487e-05
3.6485557489733e-06,3.279461070384e-06,8.67832446072391e-06,1.56063412800812e-05
3.53353783189743e-06,3.08734593705e-06,8.24552404787574e-06,1.48664078168232e-05
3.77047473030645e-06,3.13467845078832e-06,8.69527372120239e-06,1.56004269022972e-05
3.35267687958686e-06,2.96084577619739e-06,8.38837767987455e-06,1.47019003356588e-05
3.3317412990618e-06,2.86531508475635e-06,8.45236130792588e-06,1.4649417691744e-05
3.70023608146114e-06,3.09886416418921e-06,8.54296486340704e-06,1.53420651090574e-05
4.76702518822189e-06,3.858145163367e-06,9.59230597130446e-06,1.82174763228934e-05
4.66449699518843e-06,3.66353887422067e-06,8.77550955913984e-06,1.71035454285489e-05
1.13591370051428e-05,1.00328018053076e-05,1.2225271978025e-05,3.36172107884754e-05
4.40912903024185e-06,4.48464556347919e-06,9.81918141578957e-06,1.87129560095106e-05
2.96882437742389e-06,2.85980040560389e-06,8.29429311191688e-06,1.41229178949447e-05
2.95381753556434e-06,2.86776673700093e-06,8.02782981345884e-06,1.38494140860241e-05
2.89916348183463e-06,2.92287479445601e-06,8.31716084381137e-06,1.4139199120102e-05
2.98028932423652e-06,2.83705011052949e-06,7.7377616146856e-06,1.35551010494516e-05
2.72396928559112e-06,2.8058383143407e-06,6.92905708302746e-06,1.24588646829593e-05
4.15321146568786e-06,4.21856572299451e-06,8.72016296396863e-06,1.7091940152651e-05
1.87564863313762e-05,1.21525023333945e-05,2.2687271960986e-05,5.35962606257566e-05
7.1662510954005e-05,4.54617801084214e-05,4.82992022568668e-05,0.000165423493319293
0.000115171354659907,0.000116206911373449,0.000121949361436646,0.000353327627470002
5.28334433746357e-05,2.96208289421267e-05,8.19816535948324e-05,0.000164435925911595
4.34142527504622e-05,3.556038516662e-05,5.73898900333487e-05,0.000136364527950431
0.000131752192707875,0.000189017553136873,0.000266736739635115,0.000587506485479864
0.000198682850080461,0.000489552884349217,0.00049769543058402,0.0011859311650137
0.000321455064216944,0.000615894510660246,0.00230611171958698,0.00324346129446417
7.21229525415052e-05,4.99690183494322e-05,6.12364504278104e-05,0.000183328421318748
4.79531009953937e-05,9.80849204671933e-05,5.88232508245494e-05,0.000204861272287136
7.20137062471376e-05,8.86266434908997e-05,6.55185095477059e-05,0.000226158859285743
0.000228690152064299,0.000340001560760831,0.000333412774484262,0.000902104487309392
0.00029488149252846,0.00054849378716451,0.000260001595633143,0.00110337687532611
0.000129239454167651,0.000193932861689966,0.000166673213048049,0.000489845528905666
5.56809290810549e-05,0.000142058421705659,8.8558505099327e-05,0.000286297855886041
4.88872052134831e-05,6.8871414957294e-05,4.79119577236834e-05,0.00016567057789446
0.000143681850961872,0.00021923757864183,0.000148963929580055,0.000511883359183758
0.00015307779367131,0.000418621013964942,0.000184490739470104,0.000756189547106357
0.000231938699522452,0.000214377475433946,0.000175783029872883,0.000622099204829281
0.00011369841282768,0.000216798849091399,0.000149275839254731,0.00047977310117381
0.000226204034945142,0.000471630305195161,0.000329727836324003,0.00102756217646431
0.000101744367761903,5.59540345226508e-05,6.4792263787132e-05,0.000222490666071686
0.000106118266804998,0.000201090085521104,9.38792385253076e-05,0.00040108759085141
0.000124772129128258,0.000469599705337297,0.000246415331132513,0.000840787165598069
6.59828553210292e-05,2.52766497750777e-05,3.58236010565907e-05,0.000127083106152698
0.000109568736837517,0.000105997718297158,0.000108068756438761,0.000323635211573436
0.000109146124243225,6.24994012104758e-05,9.66300746523302e-05,0.000268275600106031
9.85680281828793e-05,0.000165019332331801,0.000120118859309724,0.000383706219824404
0.000385060264916255,0.000531579314023336,0.00046895429501162,0.00138559387395121
0.00089465808459819,0.00343167133205811,0.00265174566964507,0.00697807508630136
9.90710791035454e-05,0.000157472818928165,0.000114117130461178,0.000370661028492888
0.000115288246330851,0.000282864585936447,0.000206523479687142,0.00060467631195444
0.000288981197262576,0.000471238244612993,0.000485350448746951,0.00124556989062252
0.00012597257968918,0.00027636056800868,0.000141731051677177,0.000544064199375037
1.58796401872022e-05,6.03924561909101e-06,2.20474475766313e-05,4.39663333829244e-05
0.000129250946680508,0.000204702920393114,9.83484374816304e-05,0.000432302304555252
0.000431018098031572,0.000807954230056301,0.00051130135231856,0.00175027368040643
0.000165947219010105,0.000544529630099159,0.000347549956469197,0.00105802680557846
0.000106885527423109,0.000224666177449096,8.30756322156901e-05,0.000414627337087895
1.77966651157926e-05,1.28961593716355e-05,2.74913950706861e-05,5.81842195581143e-05
2.76838468744515e-05,2.96430412904788e-05,2.30380385103401e-05,8.03649266752704e-05
0.00109948725450106,0.00111614903863754,0.000388222778212849,0.00260385907135144
0.000165271431688233,0.000134865993821307,0.000189252438764493,0.000489389864274033
0.000307154577756668,0.000926262011724532,0.000536053446973094,0.00176947003645429
0.000516602245434836,0.00283082590870654,0.00174021044484202,0.0050876385989834
0.000243488137716185,0.000310509258256869,0.000310200928689966,0.00086419832466302
0.000322610627386699,0.00038000060819435,0.000359587711201291,0.00106219894678234
0.000209959218292247,0.000163200479076282,0.000205016614002598,0.000578176311371126
0.000178043755115801,0.00027345630464449,0.000147603994591882,0.000599104054352173
0.0004813105207874,0.000442695242573847,0.00034493628002599,0.00126894204338724
0.00046657928277905,0.00176367213027446,0.000979202440535112,0.00320945385358862
0.000232004484822914,0.000467684746012972,0.000211648912647206,0.000911338143483092
0.000347307831102672,0.000947996606880512,0.000535686928770072,0.00183099136675326
0.000361693709524336,0.000515626159655408,0.000417828783212984,0.00129514865239273
0.000269354876631697,0.000489256392094085,0.000231155718704243,0.000989766987430024
0.00035241130482256,0.0019441111257074,0.000746708064766975,0.00304323049529694
0.0002125584119494,0.000614389759607796,0.000217099375378991,0.00104404754693619
0.000650263954357337,0.00233796708803012,0.00114941081696197,0.00413764185934942
0.00126932796441611,0.00447467764012815,0.00149108952320565,0.00723509512774991
0.00105603436524676,0.00531095156944619,0.00414762773624421,0.0105146136709372
0.0016918536773514,0.00923015835487351,0.00575580804931059,0.0166778200815355
0.00101620613687755,0.00777158580893758,0.00412258660479264,0.0129103785506078
0.000786095772605252,0.00568021229395088,0.00224930898080285,0.00871561704735898
0.000314775292563313,0.0025495890890665,0.000829484227731316,0.00369384860936113
5.6013550929108e-05,0.000203740415631653,0.000115283605489384,0.000375037572050145
3.53022063265609e-05,5.64949445141556e-05,5.77805682455639e-05,0.00014957771908628
7.3491968004935e-05,0.000283776451705275,0.000125866042037572,0.000483134461747782
6.08731228916099e-05,0.000215382119401627,0.000137880825542478,0.000414136067835715
3.94929587243147e-05,0.000191872248153791,8.24607298140225e-05,0.000313825936692128
4.08168028762946e-05,0.000210485598829015,7.80372516043832e-05,0.000329339653309692
3.84841636484288e-05,0.000130913915810057,7.33220543124205e-05,0.000242720133770906
4.99338670971602e-05,0.000271901017784484,9.58317991219989e-05,0.000417666684003643
4.18571434493073e-05,0.00019722926856761,8.94208158948871e-05,0.000328507227911804
7.00985697419005e-05,0.000343764087265203,0.000145494340390742,0.000559356997397845
1.27442944275569e-05,2.84747735390126e-05,2.82274446378683e-05,6.94465126044379e-05
9.50722475859481e-05,0.000392835131402428,0.000286994773345838,0.000774902152334214
0.000764270598438555,0.00238686940934594,0.00197620207723284,0.00512734208501733
0.000343373257448148,0.000195301413446607,0.000353801776218435,0.000892476447113191
0.000476740583413097,0.00100363750817143,0.00112572504293627,0.0026061031345208
0.000119388672952684,6.54908576731534e-05,0.00016363299695656,0.000348512527582397
0.000116438981985937,0.000120714544845251,0.000183645530351145,0.000420799057182332
0.000108522854363618,0.000100151268107773,0.00013488163722562,0.000343555759697011
6.11430644511733e-05,0.000135894359928823,0.000180593609377209,0.000377631033757205
7.14406046339335e-05,0.000143922323970092,0.000262514758191748,0.000477877686795773
4.12210021811843e-05,9.06787410226701e-05,0.000145762576228104,0.000277662319431958
6.87653845856181e-05,0.000320788745752029,0.000377988887200889,0.000767543017538536
5.17988680266846e-05,0.000150124776616449,0.000183060235636819,0.000384983880279953
7.44407816838472e-05,0.000156828315495578,0.000214211282562297,0.000445480379741722
3.23129612463788e-05,3.25549158851383e-05,6.0133799401259e-05,0.000125001676532776
2.67626616024797e-05,6.04844131481017e-05,5.86282168369266e-05,0.000145875291587508
3.88245801467335e-05,9.19025793281365e-05,0.000109044581548962,0.000239771741023832
3.64922629011426e-05,9.77417551087896e-05,0.000135872744862313,0.000270106762872245
1.68551900478346e-05,2.73807694504658e-05,6.49133186541167e-05,0.000109149278152417
6.27637136096143e-06,4.97682291412767e-06,2.754790521241e-05,3.88010994874991e-05
2.00283844132548e-05,4.22847254427651e-05,6.43966861546201e-05,0.00012670979601064
3.17730682066085e-05,6.14189968966692e-05,8.23029113659274e-05,0.000175494976469205
6.46214327975231e-05,0.000135474658334291,0.000173203666516899,0.000373299757648713
6.06974447293995e-05,0.0001376010279268,0.000147357807057367,0.000345656279713566
7.35443959676034e-05,0.000194721110184747,0.000281944529479903,0.000550210035632254
0.00010104884637622,0.000172512292516934,0.000269997517101958,0.000543558655995112
9.40720428298723e-05,0.000196322944464096,0.000307717126824248,0.000598112114118216
8.70420107475994e-05,0.000155428514398209,0.000238488365822602,0.00048095889096841
6.67708722630845e-05,0.000126335555728252,0.000287979672089932,0.000481086100081268
3.27791660711068e-05,7.11102476401042e-05,0.00011791100178077,0.000221800415491981
3.06345000039861e-05,5.57364450214187e-05,0.000137355827820228,0.000223726772845633
4.38753212641871e-05,0.000106708386231988,0.000175327228314361,0.000325910935810536
4.791952546794e-05,9.27834778665691e-05,0.000193372761353917,0.000334075764688427
8.3765523683649e-05,0.000230890081584669,0.000330887718105252,0.00064554332337357
8.8542865260777e-05,0.000233649615404571,0.000329085547684376,0.000651278028349724
5.02543630481288e-05,0.000199161189115842,0.000218580140004819,0.00046799569216879
8.82731139496512e-05,0.000262096460066793,0.000238812170289344,0.000589181744305788
3.76040641156315e-05,0.000127905912799796,0.000152393805337105,0.000317903782252532
4.52917128066269e-05,0.000152638573595497,0.000175813411821136,0.000373743698223261
5.30739299030094e-05,0.000223319814267134,0.00019563361281708,0.000472027356987224
0.000104087256789509,0.000382080729850061,0.000443398867725138,0.000929566854364708
9.90893325581022e-05,0.000282657378885618,0.000315412539003288,0.000697159250447009
8.45255689939468e-05,0.000268605852413999,0.00028258043344852,0.000635711854856466
4.34960772008837e-05,0.000255061103375773,0.000246357817623123,0.000544914998199779
4.19646016915111e-05,0.000138743007515902,0.000212434948548055,0.000393142557755469
3.3190959327326e-05,9.76982017063095e-05,0.000132393521745925,0.00026328268277956
4.14389728209686e-05,0.000100028352145912,0.000135532594161465,0.000276999919128345
3.28544541804729e-05,6.28663248631286e-05,9.10968512683808e-05,0.000186817630311982
2.75593353331869e-05,6.29168197608115e-05,0.000103870943890555,0.000194347098984554
2.47799563808581e-05,4.35684259943506e-05,7.34723661395706e-05,0.000141820748514779
2.95656287453991e-05,5.93459050980356e-05,0.000122168049295486,0.000211079583138921
2.89533344920242e-05,6.63782805605808e-05,0.000119513003143008,0.000214844618195613
2.6653449929702e-05,3.87316956657272e-05,8.22942504406277e-05,0.000147679396036057
1.748375000464e-05,3.89583380235805e-05,7.18490453481875e-05,0.000128291133376408
3.04655577605564e-05,4.11129980434719e-05,8.02195293229054e-05,0.000151798085126934
3.57571511229884e-05,8.03011979580855e-05,0.000114691903217166,0.00023075025229824
2.75500678864138e-05,6.68443268689649e-05,8.06513725368446e-05,0.000175045767292223
2.93706636351997e-05,7.97457408034942e-05,0.000117565987597267,0.000226682392035961
3.00602537231286e-05,6.44476456817433e-05,9.96332852303879e-05,0.00019414118463526
6.00196398894379e-05,6.2266544350496e-05,8.42764354725095e-05,0.000206562619712443
7.22429880359164e-05,8.58385593550976e-05,0.000111579846532999,0.000269661393924013
2.66512466631743e-05,3.90147239723107e-05,6.30725730224582e-05,0.000128738543657943
3.29826994239566e-05,4.30417363383876e-05,9.6579800521762e-05,0.000172604236284106
2.2582485264204e-05,4.14491860427902e-05,6.99546830166044e-05,0.000133986354323599
2.41092602977361e-05,4.82416081395589e-05,9.29220641274599e-05,0.000165272932564755
5.13209481323198e-05,8.02016781839118e-05,0.00010414510674626,0.000235667733062492
4.76443226928054e-05,7.00308359215555e-05,8.03703684152382e-05,0.000198045527029599
4.35142244969852e-05,5.42904166937189e-05,6.66028002767876e-05,0.000164407441467492
3.7858091284046e-05,6.1099293052703e-05,0.000103219314605104,0.000202176698941853
4.92301843407672e-05,7.5992403587662e-05,0.000100854647919021,0.00022607723584745
4.22935177614148e-05,9.36025496557988e-05,0.000114256141631541,0.000250152209048755
4.05419855933023e-05,9.91666070412833e-05,0.000102552509379923,0.000242261102014508
3.16329712299859e-05,8.06951719246088e-05,9.99517433318613e-05,0.000212279886486456
5.07830454503157e-05,8.83779873470276e-05,0.000104393968569459,0.000243555001366802
5.77634689481676e-05,9.57661646908757e-05,0.0001155209838648,0.000269050617503843
3.00772910177743e-05,5.82108539116847e-05,9.05258601940329e-05,0.000178814005123492
2.83563830645825e-05,6.00756199155137e-05,0.000117985070362497,0.000206417073342593
2.23461890415804e-05,6.30915473552716e-05,0.000109814489057707,0.00019525222545456
2.89557150645806e-05,6.77336859160114e-05,0.000113363181489216,0.000210052582469808
3.19962676119056e-05,6.45944583356787e-05,0.000117564976800988,0.000214155702748572
8.75074237968085e-05,0.000136401028042993,0.000200445287212943,0.000424353739052745
6.54259481917042e-05,0.0001481626319746,0.000199586027792529,0.000413174607958833
3.28709193296023e-05,0.000109208980071752,0.000100181926086098,0.000242261825487452
2.01601536108269e-05,4.8761772891718e-05,7.42159926863113e-05,0.000143137919188856
3.32788430387695e-05,6.98232884961631e-05,0.000118765088253084,0.000221867219788016
3.30283823373484e-05,7.96272604514035e-05,8.26611252820442e-05,0.000195316768070796
3.68165439974772e-05,0.000104406398307934,9.09559265212633e-05,0.000232178868826674
3.22819480013995e-05,8.11821404365854e-05,9.35872743978812e-05,0.000207051362835866
2.61149716399203e-05,9.66683305403456e-05,9.04917972689202e-05,0.000213275099449186
2.65472804378976e-05,7.67654468873834e-05,8.60878808007258e-05,0.000189400608126007
3.37736555308721e-05,9.25436348128659e-05,0.000117584811510826,0.000243902101854564
2.58892434211246e-05,5.84969435121125e-05,0.000109454414607623,0.00019384060154086
3.07286373620974e-05,7.45289018942088e-05,9.65067972703455e-05,0.000201764336526652
3.70965433577808e-05,0.000124694574453538,0.000118190660876884,0.000279981778688203
3.24669701821255e-05,8.30179222498594e-05,0.00011151331047068,0.000226998202902665
2.99848581608833e-05,8.16667553016265e-05,0.000100620796336539,0.000212272409799049
3.58686239010084e-05,7.89649788497411e-05,0.000136272045677438,0.000251105648428188
3.90522971265071e-05,9.517087042319e-05,0.000115603000346623,0.00024982616789632
2.67951910180452e-05,6.82963967901199e-05,9.1167339010365e-05,0.00018625892681853
3.27753804052814e-05,6.77455758054093e-05,0.000105027454870476,0.000205548411081167
2.69019960574647e-05,0.000101066449771496,0.0001272452672906,0.00025521371311956
2.81499969780012e-05,7.45287786488743e-05,0.000100117374820098,0.000202796150446973
2.8366368539549e-05,6.03039260194425e-05,9.73992762724526e-05,0.000186069570831444
2.20888528979308e-05,7.40317909896799e-05,8.22389677089129e-05,0.000178359611596524
2.57631653100934e-05,4.87134485435998e-05,8.58442450326158e-05,0.000160320858886309
2.74069984021314e-05,6.12085394127562e-05,0.000108950053721327,0.000197565591536215
3.15174753740045e-05,8.42445097972515e-05,0.000102219776497986,0.000217981761669242
2.19912128939767e-05,6.38984867820484e-05,8.75171440185289e-05,0.000173406843694554
3.07179384017289e-05,5.48591806015466e-05,9.67243043916499e-05,0.000182301423394925
2.76961392853044e-05,7.1754591901033e-05,8.51333896488616e-05,0.000184584120835199
4.59816085220018e-05,8.62719911047393e-05,9.98986870582892e-05,0.00023215228668503
2.36054291492698e-05,6.79287861984431e-05,6.91722478643018e-05,0.000160706463212015
3.27266141823942e-05,0.000139168717769665,0.000114220189159167,0.000286115521111227
3.75787530959122e-05,0.000114572941002614,0.000172241809635016,0.000324393503733543
3.61724866553748e-05,0.000110618439970604,0.000160744854571311,0.000307535781197289
4.43554242314039e-05,0.000124203391510485,0.000175908124177216,0.000344466939919105
9.66736656108162e-05,0.000169834832144417,0.000196309809759991,0.000462818307515224
5.42908290586795e-05,0.00013602466275858,0.000159329303334724,0.000349644795151984
4.52611263163504e-05,8.83162981372759e-05,0.000105393751340247,0.000238971175793873
3.13049132959471e-05,7.67487831342411e-05,0.000113011874181766,0.000221065570611954
3.34994328903782e-05,9.90008547273421e-05,0.000117908938531039,0.000250409226148759
2.61542877251763e-05,5.87447359671931e-05,9.23642266493125e-05,0.000177263250341682
1.78454549953207e-05,2.88287878169802e-05,5.6152712899445e-05,0.000102826955711746
4.1807866371267e-05,8.72176910567697e-05,0.00014421031455513,0.000273235871983167
4.17746574661479e-05,6.73765702234617e-05,0.000140856272558444,0.000250007500248054
3.80745910388991e-05,5.07484534738017e-05,7.56709036087141e-05,0.000164493948121415
4.21420177247928e-05,7.20209663320808e-05,0.00010598698209651,0.000220149966153384
2.99542526626135e-05,4.58166821536993e-05,7.93019699705537e-05,0.000155072904786866
2.27673188596912e-05,3.59979715525289e-05,7.03847363384152e-05,0.000129150026750635
1.67588356860561e-05,4.15509463228166e-05,7.07581913608149e-05,0.000129067973369688
1.6454260342588e-05,2.98970124219286e-05,7.60441468229951e-05,0.000122395419587512
1.08222958130966e-05,1.33860342645797e-05,3.05028621041779e-05,5.47111921818541e-05
8.71064164787049e-06,2.03269727617287e-05,6.3193880113669e-05,9.22314945232681e-05
5.40461825105426e-06,8.770797644602e-06,3.52268751318552e-05,4.94022910275114e-05
1.39630131824192e-05,2.56888257223805e-05,9.38069543122091e-05,0.000133458793217009
1.11536582282202e-05,3.23781183971133e-05,0.000105629493521663,0.000149161270146996
1.89444934362745e-05,2.55772554721875e-05,8.38325813159128e-05,0.000128354330224375
0.00011266903821527,6.72362936874488e-05,0.000142371413871346,0.000322276745774065
0.000429159053928618,0.000477783243847757,0.000362638830201714,0.00126958112797809
0.000126888526315086,0.000208974949793253,0.000192229201850602,0.000528092677958941
0.000184181599048836,0.000105936115184859,0.000148172991815895,0.00043829070604959
0.000132269806209713,0.000593942480392668,0.000309650231291288,0.00103586251789367
0.000470663998532248,0.00274379289264742,0.00163547105215289,0.00484992794333256
8.08467811044642e-05,0.000129091278933253,8.04202589682019e-05,0.000290358319005919
0.000341271490783801,0.00116928476007257,0.000556285991005181,0.00206684224186155
0.000860174310722545,0.00439236588868268,0.00221538195559097,0.0074679221549962
0.00124129198603056,0.00666207474594778,0.00466700118873642,0.0125703679207148
0.000448477499607228,0.00178084541090208,0.0012716772502235,0.0035010001607328
0.000755010436658811,0.00422881580048888,0.00234383360596901,0.0073276598431167
0.00148817947634631,0.00652942557106265,0.0046034106869999,0.0126210157344089
0.000375617535806886,0.00151401180027879,0.000939179245952379,0.00282880858203805
0.00128499834102175,0.00641609502942362,0.00422932968171355,0.0119304230521589
0.00131947827440955,0.00694822376879956,0.00382730687446766,0.0120950089176768
0.00118420033438728,0.00615988406321393,0.00352490604710321,0.0108689904447044
0.0013279753888199,0.00591159799872747,0.00466702948930863,0.011906602876856
0.00149309064969708,0.00557564147939307,0.00310382372825734,0.0101725558573475
0.00154709203016451,0.00708801260539768,0.00604927208599412,0.0146843767215563
0.00110756935280451,0.00732900863741951,0.00446490769647611,0.0129014856867001
0.00084380059605045,0.00599108668935983,0.00356862420205856,0.0104035114874688
0.000789511774041195,0.0050949775105863,0.00251629773074791,0.00840078701537541
0.00081324194948075,0.00254352315389017,0.000876806305818936,0.00423357140918986
0.000561884278802516,0.00176229792108028,0.000743212035662537,0.00306739423554533
0.000671768663247788,0.00293858210077272,0.00117887253541104,0.00478922329943155
7.29646757671092e-05,0.000276552361007435,0.000272723354436478,0.000622240391211022
0.000155007247064302,0.000683273319332287,0.000351673904849759,0.00118995447124635
0.000243425189205531,0.000482189042677777,0.000261543147092129,0.000987157378975436
0.000463534757906468,0.00243994235318643,0.00139327735860483,0.00429675446969773
0.000470070953745612,0.00259354727709803,0.00128902273168566,0.0043526409625293
0.000375607610351797,0.00177756982038445,0.000792857619294818,0.00294603505003107
0.000217053554396939,0.00156413808196821,0.000468384336103449,0.0022495759724686
0.000220373903895006,0.000112384073942725,0.000159936454406823,0.000492694432244554
0.00010815303117636,0.00010701394557936,0.000168803310827507,0.000383970287583228
6.87658119426364e-06,3.60928421213602e-06,1.61809145159278e-05,2.66667799223275e-05
6.15876490913981e-06,3.8532359750795e-06,1.39017106657745e-05,2.39137115499939e-05
6.32713981594835e-05,0.000155763746625384,0.000102791436190522,0.000321826580975389
5.43249371031398e-05,3.53150637202765e-05,7.48148982319556e-05,0.000164454899055372
0.000111306316376431,4.29888639874742e-05,7.79150735518508e-05,0.000232210253915756
5.34258645175888e-05,1.96588731108985e-05,4.71707383600035e-05,0.000120255475988491
5.5829641617511e-05,1.84652003506829e-05,5.90749310467167e-05,0.000133369773014911
5.28652560616454e-05,3.18432905413231e-05,4.77190892070254e-05,0.000132427635809994
1.27357772240869e-05,7.89946918664262e-06,1.83668436167438e-05,3.90020900274734e-05
4.24928548487358e-06,3.09592152718658e-06,1.00787004415492e-05,1.74239074536094e-05
4.04426250774906e-06,3.14815050476137e-06,1.02181406312319e-05,1.74105536437423e-05
3.98673108705331e-06,3.06724877933797e-06,9.51087199820579e-06,1.65648518645971e-05
4.11750207976816e-06,3.15435935053386e-06,1.00357766800775e-05,1.73076381103796e-05
4.0664261131059e-06,3.05279833502616e-06,9.91872291875358e-06,1.70379473668856e-05
3.90648515826441e-06,3.01500435251736e-06,9.93306694217478e-06,1.68545564529566e-05
3.72677458211315e-06,2.89655747900685e-06,9.19085970417276e-06,1.58141917652928e-05
9.12344080009571e-05,3.56604145564401e-05,5.6482222909577e-05,0.000183377045466974
0.000315390367171036,7.7118291094769e-05,0.000216740305811786,0.000609248964077591
5.36258334960095e-05,3.20633650420491e-05,5.72860678774383e-05,0.000142975266415497
8.20071613458305e-05,7.73599728720423e-05,0.000130070994210932,0.000289438128428804
2.09805189049993e-05,1.50696465011894e-05,3.19883554645199e-05,6.80385208707085e-05
1.26097250540569e-05,1.17848695633197e-05,2.15674306223277e-05,4.59620252397043e-05
8.40728578655244e-06,1.45930998726575e-05,1.9239411529789e-05,4.22397971889989e-05
5.16889565270987e-06,3.67009849175077e-06,1.19776497147864e-05,2.08166438592471e-05
6.68934225292813e-06,4.16327979573528e-06,1.32259785990391e-05,2.40786006477025e-05
1.50455575880003e-05,1.84102970274142e-05,2.17738333468923e-05,5.52296879623068e-05
7.45532173754439e-06,7.65576023347237e-06,1.4303964797559e-05,2.94150467685757e-05
6.04966203612941e-06,4.07451276526286e-06,1.25899051191486e-05,2.27140799205409e-05
6.96568930092959e-06,4.38403036073093e-06,1.16072491976194e-05,2.29569688592799e-05
3.68395269898241e-05,3.19185109182171e-05,4.89205437261024e-05,0.000117678581634144
7.1429262049173e-06,4.06716379017842e-06,1.18842996206929e-05,2.30943896157886e-05
4.30902761152314e-06,3.16874431088233e-06,1.06661248912168e-05,1.81438968136222e-05
5.773565829545e-06,3.9389763522904e-06,1.28485485472956e-05,2.2561090729131e-05
4.96813828138174e-06,3.38664438144331e-06,1.16823283241701e-05,2.00371109869952e-05
5.0229005558026e-06,3.21120904917075e-06,1.0466202345521e-05,1.87003119504944e-05
7.49216426745642e-06,6.30014497849389e-06,1.75511161180864e-05,3.13434253640367e-05
3.42248628437588e-06,2.67740860736843e-06,9.05589281408368e-06,1.5155787705828e-05
6.9796906263204e-06,4.98835753613179e-06,1.33258664212965e-05,2.52939145837487e-05
3.89976282785363e-06,2.86531542046369e-06,9.21377245237796e-06,1.59788507006953e-05
5.30064508972012e-06,3.93685253887844e-06,1.13725178165875e-05,2.0610015445186e-05
7.88927726703305e-06,8.13398341744004e-06,2.78680044969471e-05,4.38912651814201e-05
4.30915852772901e-06,3.59676660202264e-06,1.00806604723976e-05,1.79865856021492e-05
3.75571241115132e-06,2.8061487236163e-06,8.63810748873507e-06,1.51999686235027e-05
3.265910958293e-06,2.61395040342733e-06,8.54781643704515e-06,1.44276777987655e-05
3.16947540605121e-06,2.58960051872557e-06,8.22032445864101e-06,1.39794003834178e-05
3.39219134030251e-06,2.86381932103473e-06,8.644386766139e-06,1.49003974274762e-05
7.90723744447677e-06,5.55567996364104e-06,1.26075100750653e-05,2.60704274831831e-05
1.97299774646213e-05,1.28527719422075e-05,1.67254539223827e-05,4.93082033292115e-05
6.30196486075915e-06,1.27206026694689e-05,1.64662385373254e-05,3.54888060675535e-05
3.81475993665733e-05,2.50254471780808e-05,6.30250715746227e-05,0.000126198118119277
1.66912269580653e-05,2.01614194501057e-05,3.41166864190034e-05,7.09693328271744e-05
3.62910672932007e-06,6.90446540488807e-06,1.21853644445521e-05,2.27189365787602e-05
1.55651391562672e-05,1.00879996238305e-05,2.13778541817948e-05,4.70309929618925e-05
2.0844944311099e-05,1.50325491272638e-05,1.72461731583615e-05,5.31236665967242e-05
1.42590207084837e-05,4.18574135385915e-06,1.06572202353259e-05,2.91019822976687e-05
1.46401481351913e-05,6.39449063894713e-06,1.30720074432905e-05,3.41066462174289e-05
1.22657068609219e-05,4.94574314718066e-06,1.20361723170294e-05,2.92476223251319e-05
8.14827491239749e-06,3.3135464154529e-06,8.68657027027587e-06,2.01483915981263e-05
6.30970901032932e-06,3.5440589701618e-06,9.33482491868423e-06,1.91885928991753e-05
6.64273975612485e-06,3.9806415321611e-06,9.95616281366984e-06,2.05795441019558e-05
7.60809672182816e-06,4.40415670922535e-06,9.93539187102042e-06,2.19476453020739e-05
7.18127237842719e-06,4.64710452094489e-06,1.02856159728257e-05,2.21139928721978e-05
5.63398399418738e-06,4.22736914429291e-06,9.67374597713979e-06,1.95350991156201e-05
6.42042165983732e-06,4.33545209656066e-06,1.02239328838903e-05,2.09798066402882e-05
6.58737821212373e-06,4.41054882476703e-06,9.779659631106e-06,2.07775866679968e-05
6.3217151048836e-06,3.64399523988843e-06,9.64258832580982e-06,1.96082986705819e-05
8.15891298046796e-06,5.16678808791879e-06,1.21621726224106e-05,2.54878736907974e-05
1.09582395877041e-05,7.05073414453445e-06,1.47870325991249e-05,3.27960063313634e-05
6.10297700384226e-06,4.39828626405619e-06,1.07221831337349e-05,2.12234464016333e-05
6.18326382941024e-06,3.53095667227626e-06,9.49585271053025e-06,1.92100732122168e-05
1.11690750073564e-05,5.55911924000896e-06,1.25499467686914e-05,2.92781410160568e-05
1.32148396128756e-05,5.68967634338677e-06,1.31369718797349e-05,3.20414878359973e-05
1.29355011994227e-05,5.84417170022813e-06,1.28142778029569e-05,3.15939507026078e-05
7.38089800246749e-06,4.19832361938059e-06,1.12818617918256e-05,2.28610834136737e-05
1.14317958309449e-05,5.3247415657859e-06,1.18120873907428e-05,2.85686247874736e-05
8.30160831007598e-06,3.94113133674815e-06,1.05435065902548e-05,2.27862462370789e-05
7.80451756380479e-06,3.90182961437995e-06,1.01196385134284e-05,2.18259856916131e-05
8.14178309740424e-06,4.70575984425141e-06,1.10048198913231e-05,2.38523628329788e-05
4.90006297920191e-06,3.59136517716161e-06,8.64699362455056e-06,1.71384217809141e-05
6.62513248944152e-06,1.63311070967576e-05,1.54116600969703e-05,3.83678996831694e-05
6.18819639787158e-06,8.24935773065195e-06,1.32573789443313e-05,2.76949330728548e-05
4.43820656274008e-06,2.94026684297847e-06,9.3077150246824e-06,1.66861884304009e-05
3.84621258798307e-06,2.92744497043214e-06,9.08190928786416e-06,1.58555668462794e-05
6.60037660926592e-06,9.43387324074089e-06,1.4974450706827e-05,3.10087005568338e-05
4.66723062759546e-06,6.97738434402692e-06,1.03491956487606e-05,2.1993810620383e-05
4.03697675140518e-06,7.09395183698871e-06,9.74639310621568e-06,2.08773216946096e-05
3.60474612974594e-06,3.87569874125883e-06,8.11615877436845e-06,1.55966036453732e-05
5.83105356918524e-06,3.54000683126517e-06,8.92500139922202e-06,1.82960617996724e-05
3.28281708225079e-05,3.70768822402136e-05,3.78835152308574e-05,0.000107788568293579
0.000107926286531264,0.000116046473963096,0.000100294801766379,0.00032426756226074
1.38871726797089e-05,6.00042060882838e-06,2.33749164158714e-05,4.32625097044087e-05
1.04776996126018e-05,1.06607326018288e-05,1.50853273419683e-05,3.6223759556399e-05
2.50666544294312e-05,2.14336417194861e-05,4.03511115567479e-05,8.68514077056652e-05
2.00524917697217e-05,1.20182774220882e-05,2.26176264630132e-05,5.4688395654823e-05
5.95995177939929e-06,3.7724372809564e-06,9.3565350105423e-06,1.9088924070898e-05
5.26790287866756e-06,3.67332473326375e-06,9.09543580450286e-06,1.80366634164342e-05
5.61931395554516e-06,4.82734318745381e-06,9.99729128387541e-06,2.04439484268744e-05
3.24197707150304e-06,2.7421382520285e-06,7.77854951117281e-06,1.37626648347044e-05
3.24054074206907e-06,2.62547897631261e-06,7.92258027134849e-06,1.37885999897302e-05
3.44695917103589e-06,2.8495725004053e-06,7.65028379151307e-06,1.39468154629543e-05
5.68023960075503e-06,3.9638944212022e-06,1.15108587421897e-05,2.1154992764147e-05
8.05025424082892e-06,4.64816827685983e-06,1.01997447082624e-05,2.28981672259511e-05
4.8968733556829e-06,6.64181306410849e-06,1.0543861597446e-05,2.20825480172374e-05
4.03565360148136e-06,4.98435965246767e-06,8.87418815528856e-06,1.78942014092376e-05
8.34455298532795e-06,8.08132481157594e-06,1.51171741871286e-05,3.15430519840325e-05
1.83306539634971e-05,1.65373074089398e-05,2.2457136096801e-05,5.7325097469238e-05
6.41793568922828e-06,4.2661022166526e-06,1.30487202371085e-05,2.37327581429894e-05
7.89558278483109e-06,1.30096309413899e-05,1.25555253394972e-05,3.34607390657181e-05
4.79139927580677e-05,2.368655421601e-05,3.81203224900594e-05,0.000109720869464137
4.10032723421423e-05,3.19683845065661e-05,5.55711459826831e-05,0.000128542802831391
1.18778469005205e-05,2.44673088180296e-05,2.26281427169298e-05,5.89732984354799e-05
5.39834820845114e-06,3.17180995051468e-06,9.42856932810824e-06,1.79987274870741e-05
4.37408442074867e-06,3.08506734605502e-06,7.75641822872294e-06,1.52155699955266e-05
4.65008245759824e-06,2.98802805522078e-06,7.38916767698295e-06,1.5027278189802e-05
4.5428700478978e-06,3.0878467445059e-06,7.87760827772336e-06,1.55083250701271e-05
4.56231540979548e-06,2.83575048104887e-06,7.7637881017779e-06,1.51618539926223e-05
4.8366172517664e-06,2.94907300294334e-06,7.29907951160821e-06,1.5084769766318e-05
3.71313345632285e-06,2.70681171783454e-06,7.0208735836044e-06,1.34408187577618e-05
3.15828992524471e-06,2.69346715512788e-06,6.51898461231592e-06,1.23707416926885e-05
1.3290340705731e-05,1.77264452356068e-05,3.84517460690615e-05,6.94685320103993e-05
1.03807300406694e-05,1.70763076508057e-05,1.2888807502934e-05,4.03458451944092e-05
7.50586875002132e-06,6.37114124672384e-06,1.04602963062572e-05,2.43373063030023e-05
4.41728503997969e-06,3.56977910138512e-06,9.02140963474487e-06,1.70084737761097e-05
1.79261774077311e-05,2.15902523109117e-05,2.55092373977404e-05,6.50256671163832e-05
3.22355779016045e-05,3.41599784129279e-05,3.23836676357348e-05,9.87792239502672e-05
5.78858631130658e-06,3.03481596450527e-06,1.09288970847307e-05,1.97522993605425e-05
4.94794013512314e-06,3.11668424415126e-06,9.1669129901525e-06,1.72315373694269e-05
4.93144862567073e-06,3.6573355209436e-06,8.77241490643364e-06,1.7361199053048e-05
4.27648348181014e-06,2.80386622787324e-06,7.66041530976493e-06,1.47407650194483e-05
4.05374639416478e-06,2.80440149485832e-06,8.21565629997932e-06,1.50738041890024e-05
3.83968990077797e-06,2.70734888673403e-06,8.08758402774758e-06,1.46346228152596e-05
4.39692013552501e-06,4.96330063402046e-06,9.50297715249282e-06,1.88631979220383e-05
5.55150187168536e-06,5.19942645389934e-06,1.32861480852282e-05,2.40370764108129e-05
6.90362127186802e-06,6.1406152579371e-06,1.19996845573889e-05,2.5043921087194e-05
5.16192174304397e-06,4.58443349101996e-06,1.20417936657939e-05,2.17881488998578e-05
5.17589963357016e-06,4.77394847210336e-06,1.22590187741235e-05,2.2208866879797e-05
4.05369151449928e-06,3.12643327991707e-06,9.98861106316701e-06,1.71687358575834e-05
3.85751137338636e-06,2.9460959254059e-06,8.5253619815239e-06,1.53289692803162e-05
6.01188640623307e-06,3.64814514251724e-06,9.56341729573172e-06,1.9223448844482e-05
3.56036431437798e-06,2.79625395330986e-06,8.10129545631014e-06,1.4457913723998e-05
3.43870041220195e-06,2.83877972816426e-06,8.35346080740589e-06,1.46309409477721e-05
4.17059786232675e-06,3.03440720138158e-06,8.39712203567942e-06,1.56021270993877e-05
3.74948381160459e-06,3.01945094062605e-06,8.28950565773817e-06,1.50584404099688e-05
3.30858763297209e-06,2.9601995604121e-06,7.68556159558447e-06,1.39543487889687e-05
3.4187408085046e-06,2.87785305048266e-06,7.77951073743949e-06,1.40761045964267e-05
3.18745349101166e-06,2.64676617491441e-06,7.73295466533785e-06,1.35671743312639e-05
3.33261291800612e-06,2.67704459404945e-06,7.24862578324385e-06,1.32582832952994e-05
3.69384014897263e-06,2.93368173917531e-06,8.0239839869765e-06,1.46515058751244e-05
3.5527198017759e-06,2.79567550219832e-06,8.15433979396463e-06,1.45027350979389e-05
5.08075180003761e-06,3.4226347892427e-06,9.55731724272155e-06,1.80607038320019e-05
4.27372166816008e-06,3.16367585833089e-06,8.58881150061761e-06,1.60262090271086e-05
8.06425602792208e-06,8.25728431000247e-06,1.35397205126307e-05,2.98612608505552e-05
8.96228656085369e-06,5.17202479908438e-06,1.31625306483096e-05,2.72968420082477e-05
4.98393730130232e-06,3.40635280648142e-06,1.0381782853503e-05,1.87720729612867e-05
4.57428200119277e-06,3.1522015308438e-06,8.77416285321582e-06,1.65006463852524e-05
4.80047781163675e-06,3.4045314575804e-06,9.03167494879256e-06,1.72366842180097e-05
5.14564430227126e-06,3.80657346881332e-06,9.06635003210302e-06,1.80185678031876e-05
5.02473231207138e-06,3.60847250525199e-06,9.25620479780839e-06,1.78894096151318e-05
4.50404231676784e-06,3.52431502230246e-06,9.19622619631117e-06,1.72245835353815e-05
1.730200316628e-05,1.2407819293233e-05,2.90447760468272e-05,5.87545985063403e-05
2.82279240175466e-05,2.12715308641643e-05,3.52025841902067e-05,8.47020390719177e-05
5.59332176400256e-06,3.97689905857356e-06,1.43584259014288e-05,2.39286467240049e-05
8.37665082949657e-06,6.15706266108419e-06,1.70927204727954e-05,3.16264339633762e-05
3.90089208379475e-06,2.78935830343497e-06,9.8463476701898e-06,1.65365980574195e-05
3.67534765138499e-06,2.79538616764339e-06,9.6413313392873e-06,1.61120651583157e-05
5.5585017036799e-05,2.91178522080876e-05,3.20342086550174e-05,0.000116737077899904
2.24903530057229e-05,2.72574591935121e-05,3.52445240627647e-05,8.49923362619997e-05
4.04167027270624e-06,3.4050128906481e-06,1.00898173014318e-05,1.75365004647861e-05
3.91613375583877e-06,3.36815898478919e-06,9.89619095322407e-06,1.7180483693852e-05
3.59738546148487e-06,2.9405728543976e-06,8.76841044905653e-06,1.5306368764939e-05
2.62498385552808e-05,2.17852753455662e-05,2.69630471493135e-05,7.49981610501605e-05
6.59665074300419e-06,5.82094929370919e-06,1.33018762904806e-05,2.5719476327194e-05
8.30296303949139e-06,3.67087845386146e-06,1.15580794329237e-05,2.35319209262765e-05
6.14026679732391e-06,4.37843452865522e-06,1.12156882300293e-05,2.17343895560084e-05
4.52948261318661e-06,3.39283070420456e-06,9.47169049238854e-06,1.73940038097797e-05
6.93547087238232e-06,4.02651924678841e-06,1.00748587209694e-05,2.10368488401401e-05
1.17518922200747e-05,1.20926330192981e-05,2.38341311279036e-05,4.76786563672764e-05
9.16549221975546e-06,5.38723995585788e-06,1.44905557693122e-05,2.90432879449255e-05
9.56578591617771e-06,7.08199753441466e-06,1.63917269943145e-05,3.30395104449069e-05
6.74527990805695e-05,5.87815351638203e-05,0.000104914476017754,0.000231148810262144
4.92802012731185e-06,3.39929533030752e-06,9.94355840085604e-06,1.82708738584754e-05
1.53971581786764e-05,1.16921686103701e-05,1.94712768169639e-05,4.65606036060104e-05
1.4754122882874e-05,1.16083016343597e-05,2.59508165698028e-05,5.23132410870366e-05
1.14407389315162e-05,7.72419782308305e-06,1.61809536310577e-05,3.53458903856569e-05
4.92936358039391e-06,3.53856066553245e-06,1.08121935802821e-05,1.92801178262084e-05
1.08287990171656e-05,7.7633372422882e-06,1.89701859356548e-05,3.75623221951086e-05
3.22510204233215e-06,2.61629318266961e-06,7.7601640905508e-06,1.36015593155526e-05
7.87332277998497e-06,4.07739781065343e-06,1.09158271359735e-05,2.2866547726612e-05
7.93218591667043e-06,5.08162008856575e-06,1.59159984512044e-05,2.89298044564406e-05
6.54088022685655e-06,5.38440676331689e-06,1.62957736231693e-05,2.82210606133427e-05
1.99436834468254e-05,9.57954212690045e-06,1.99312886202887e-05,4.94545141940145e-05
1.15458244081802e-05,8.48344409778333e-06,1.53525479877525e-05,3.5381816493716e-05
6.68156511731464e-06,6.51996815371879e-06,2.25050341990723e-05,3.57065674701057e-05
6.02918621777343e-06,5.98363534418847e-06,1.88136883709779e-05,3.08265099329398e-05
7.85987340492497e-06,1.00272453730833e-05,1.74821813079057e-05,3.53693000859139e-05
5.85152639833902e-06,3.82705328293474e-06,1.01112892053049e-05,1.97898688865786e-05
5.43471765218067e-06,3.20296947629139e-06,9.53453349551427e-06,1.81722206239863e-05
9.14125192923617e-06,4.62540134999333e-06,1.20072448909829e-05,2.57738981702124e-05
4.56718524818995e-06,3.5139240576234e-06,9.80746276846169e-06,1.7888572074275e-05
3.936189051901e-06,3.10143750252094e-06,9.62690124083787e-06,1.66645277952598e-05
5.79844261471386e-06,3.44086454490773e-06,9.64952558591367e-06,1.88888327455353e-05
4.38286337745845e-06,3.48896648450085e-06,9.41719067211413e-06,1.72890205340734e-05
9.77078405677309e-06,1.30870706854549e-05,1.64071445581516e-05,3.92649993003796e-05
6.02812665296624e-06,9.34757510018386e-06,1.68847645490333e-05,3.22604663021834e-05
5.26881782654666e-06,3.49202562304786e-06,9.95024109861279e-06,1.87110845482073e-05
4.04367770872073e-06,3.63116715166503e-06,8.91429008401487e-06,1.65891349444006e-05
4.47542042086515e-06,3.29099596965261e-06,9.14523211472508e-06,1.69116485052428e-05
1.31761195698902e-05,7.7300117087599e-06,1.47928319764319e-05,3.5698963255082e-05
2.82498281438617e-05,9.75641855748876e-06,2.2873452271399e-05,6.08796989727495e-05
2.60121138479386e-05,7.98834518583413e-06,2.4280157498552e-05,5.82806165323248e-05
3.82791749998831e-05,1.27354053161686e-05,2.64027115921154e-05,7.74172919081671e-05
1.51199843170656e-05,1.18272813231041e-05,3.13042453477698e-05,5.82515109879395e-05
2.16129624089874e-05,3.46886509650372e-05,3.16004734547381e-05,8.79020868287626e-05
9.55073872801002e-06,9.58071222775624e-06,1.43856147058153e-05,3.35170656615815e-05
6.62108764365297e-06,1.01369714272965e-05,1.25639266774225e-05,2.9321985748372e-05
6.87521194238776e-06,1.1616561709097e-05,1.13236404169868e-05,2.98154140684716e-05
7.97702855120322e-06,9.43352443637589e-06,1.23536993890127e-05,2.97642523765918e-05
6.22872623430179e-06,9.29820262969464e-06,1.16931208314264e-05,2.72200496954229e-05
5.53916162637466e-06,1.14160571599885e-05,1.15292397677584e-05,2.84844585541215e-05
1.33621240921461e-05,1.61746061921286e-05,2.13391766692201e-05,5.08759069534948e-05
1.92418216025711e-05,1.51736849404329e-05,1.97811176911705e-05,5.41966242341745e-05
8.50440835661895e-06,5.41722408003213e-06,1.13419092611683e-05,2.52635416978194e-05
1.75943821113755e-05,7.11982605507184e-06,1.68569745302496e-05,4.15711826966969e-05
2.22967898549011e-05,8.65045193522388e-06,2.04687350738121e-05,5.14159768639371e-05
2.93390514598762e-05,1.90240049161903e-05,2.85619688344635e-05,7.692502521053e-05
1.80958723816666e-05,1.82117200589977e-05,2.26465143595891e-05,5.89541068002535e-05
1.72748671845922e-05,9.03254412856387e-06,2.30959016163174e-05,4.94033129294735e-05
5.32449069413266e-06,7.6845823811576e-06,1.0461947817212e-05,2.34710208925023e-05
8.64344216038351e-06,1.44403215742262e-05,1.37891604559989e-05,3.68729241906086e-05
5.0195915763932e-06,4.19093435346549e-06,1.06724554247306e-05,1.98829813545892e-05
5.04572863652063e-06,5.09486644214104e-06,9.81002030114077e-06,1.99506153798024e-05
5.46627772997179e-06,6.97694031519558e-06,1.14027319673396e-05,2.38459500125069e-05
6.2298306001514e-06,9.4402848258062e-06,1.30822573094855e-05,2.87523727354431e-05
1.75846242172175e-05,8.63447879693832e-06,1.33037936110845e-05,3.95228966252403e-05
6.52698951539463e-06,5.9722502604003e-06,1.24726575192918e-05,2.49718972950867e-05
8.31633393078739e-06,4.52854073345759e-06,1.15967942014526e-05,2.44416688656976e-05
7.18533297677953e-06,3.78376520624315e-06,1.0349857116063e-05,2.13189552990857e-05
5.89367736045032e-06,3.4476862427124e-06,9.32048652153708e-06,1.86618501246998e-05
1.02137943659746e-05,4.5495489011849e-06,1.08217147237045e-05,2.5585057990864e-05
4.86708580007e-06,3.13809945314032e-06,9.43623528655465e-06,1.7441420539765e-05
4.85180381547021e-06,3.04703377630925e-06,8.82118416753886e-06,1.67200217593183e-05
4.45414858623879e-06,3.09786489773741e-06,9.86117721282553e-06,1.74131906968017e-05
4.79924890850597e-06,3.08424175825057e-06,9.21020041204378e-06,1.70936910788003e-05
4.32455792510153e-06,3.08945050502943e-06,8.24625796350546e-06,1.56602663936364e-05
4.37798529417117e-06,3.13561486562002e-06,8.62305014668712e-06,1.61366503064783e-05
4.30458949253244e-06,3.1224793678207e-06,8.89149293538282e-06,1.6318561795736e-05
4.36976083630546e-06,3.10911719400889e-06,8.52538040276677e-06,1.60042584330811e-05
4.24828199648737e-06,3.22430497185461e-06,8.91885130763921e-06,1.63914382759812e-05
4.19769909599578e-06,3.22796691847696e-06,8.60029582006451e-06,1.60259618345372e-05
4.30808928661828e-06,3.25649946434221e-06,8.88427325265233e-06,1.64488620036128e-05
4.14392861224932e-06,3.13482072408041e-06,8.42516575656541e-06,1.57039150928951e-05
6.32278345168055e-06,4.74536789939039e-06,1.05229800689301e-05,2.1591131420001e-05
7.21110558773978e-06,4.3238879725233e-06,1.00419840776652e-05,2.15769776379283e-05
5.79290628078225e-06,3.82245568392022e-06,1.0716825430872e-05,2.03321873955745e-05
4.19120150088753e-06,3.04323306971907e-06,9.34146903584306e-06,1.65759036064497e-05
1.60735172626231e-05,8.44976429578173e-06,1.51380898489678e-05,3.96613714073727e-05
6.78402914996708e-06,3.46834165599736e-06,9.56198942997729e-06,1.98143602359417e-05
3.51214372334335e-06,2.88224918751807e-06,8.47622957338187e-06,1.48706224842433e-05
4.8901490528525e-06,3.61617365807214e-06,8.47884679021595e-06,1.69851695011406e-05
6.84012355659265e-06,4.37719709243044e-06,9.38515667305681e-06,2.06024773220799e-05
4.81360001172325e-06,3.05074198239709e-06,8.04850924724861e-06,1.5912851241369e-05
3.17627652967823e-06,2.56072542516302e-06,7.51802558286137e-06,1.32550275377026e-05
3.02094614001482e-06,2.53581012735388e-06,7.75001916263214e-06,1.33067754300008e-05
3.01210434191556e-06,2.55142026857416e-06,7.68850762084411e-06,1.32520322313338e-05
3.17502339590129e-06,2.60862428515598e-06,7.30067238856412e-06,1.30843200696214e-05
3.29988133049195e-06,2.70814830094154e-06,7.55110248298923e-06,1.35591321144227e-05
3.33621586425882e-06,2.67103669995813e-06,7.35213023122458e-06,1.33593827954415e-05
3.24637256982325e-06,2.65461108230986e-06,7.47248143445861e-06,1.33734650865917e-05
8.83664097629992e-06,4.84316387844792e-06,1.31742453914632e-05,2.68540502462111e-05
2.16506748140144e-05,1.47210833693378e-05,2.82845493748479e-05,6.46563075582001e-05
3.72184114824343e-06,2.78627388641115e-06,9.57819924698767e-06,1.60863142816423e-05
3.25396036870101e-06,2.57055969581536e-06,9.08724956055928e-06,1.49117696250756e-05
3.42357712940532e-06,2.65909039064253e-06,8.87510847278197e-06,1.49577759928298e-05
3.6670486781528e-06,2.77022255420873e-06,8.95553991497769e-06,1.53928111473392e-05
2.11884011601958e-05,9.53375417313424e-06,2.34737024279763e-05,5.41958577613063e-05
2.49435052201669e-05,2.98105075270682e-05,4.15286090469845e-05,9.62826217942196e-05
5.53963331201009e-06,7.17800865046597e-06,1.58215345008695e-05,2.85391764633456e-05
1.48785186965862e-05,1.67735667380455e-05,2.06702215027166e-05,5.23223069373483e-05
1.4507544124795e-05,1.23008331784032e-05,1.91771209605134e-05,4.59854982637116e-05
9.12362194911684e-06,6.10209402821154e-06,1.07434624249163e-05,2.59691784022447e-05
1.99573778443763e-05,1.89975205377736e-05,2.22859957270061e-05,6.1240894109156e-05
1.01332672120036e-05,1.22375636479788e-05,1.68602163347525e-05,3.92310471947348e-05
9.50811355492928e-06,1.12254225104027e-05,1.43189679865865e-05,3.50525040519185e-05
9.3146635782603e-06,1.12057704183752e-05,1.72550961111385e-05,3.7775530107774e-05
8.51351821829401e-06,7.60532700686906e-06,1.42224749344901e-05,3.03413201596531e-05
8.1705291003473e-06,9.80144485982542e-06,1.29822454689842e-05,3.09542194291569e-05
9.02179659414907e-06,1.00674030539808e-05,1.3303082617197e-05,3.23922822653268e-05
7.5976011693934e-06,8.95598622329662e-06,1.14673228752423e-05,2.80209102679323e-05
7.80652679821051e-06,7.38516102703156e-06,1.15079581421885e-05,2.66996459674306e-05
8.82451593510076e-06,1.38621145112351e-05,1.37790489565873e-05,3.64656794029231e-05
7.40013053774166e-06,9.11867699472451e-06,1.32520108946961e-05,2.97708184271622e-05
8.1819669559771e-06,9.37727753075154e-06,1.31185185595249e-05,3.06777630462535e-05
1.021519408581e-05,1.01291545832357e-05,1.42580362777168e-05,3.46023849467625e-05
2.0569525040751e-05,1.80863219458848e-05,2.84297809050671e-05,6.70856278917029e-05
1.81306963650182e-05,1.59338925456008e-05,2.76013709250869e-05,6.16659598357059e-05
1.46610856142297e-05,1.1227774734602e-05,1.60482474204406e-05,4.19371077692723e-05
3.28775105670614e-06,2.48665366141088e-06,7.32367566267484e-06,1.30980803807919e-05
6.26257776656154e-06,1.72466488143088e-05,1.51236160690236e-05,3.86328426498939e-05
7.87106112557926e-06,9.80924642432004e-06,1.39165994527261e-05,3.15969070026254e-05
5.41856747191826e-06,3.71129845829971e-06,1.10171238889077e-05,2.01469898191256e-05
5.60607758460896e-06,3.56134709532313e-06,1.14398366565318e-05,2.06072613364639e-05
3.79085966331122e-06,2.93769167349695e-06,8.81047977882262e-06,1.55390311156308e-05
5.66978175035095e-06,3.93190377591442e-06,1.17009566422177e-05,2.13026421684831e-05
4.66289072726028e-06,3.19483298971917e-06,9.65421405376535e-06,1.75119377707448e-05
3.31081341697741e-06,2.71758555092621e-06,7.71425320468613e-06,1.37426521725898e-05
3.28934047601147e-06,2.67738058461662e-06,7.19528631873695e-06,1.3162007379365e-05
1.52902244964802e-05,1.48895666605478e-05,1.75458762530616e-05,4.77256674100896e-05
6.87605843857687e-06,8.69945569549766e-06,1.50758663681118e-05,3.06513805021863e-05
1.53296900653733e-05,5.36031204901359e-06,1.66481196356464e-05,3.73381217500333e-05
1.8223739569056e-05,6.998118144403e-06,1.7404194188542e-05,4.2626051902001e-05
1.62863008991338e-05,7.88488428440944e-06,1.71801431145671e-05,4.13513282981103e-05
1.7441490861782e-05,8.08776528935868e-06,1.67284125487175e-05,4.22576686998582e-05
2.00930358287199e-05,9.66218368987168e-06,1.7411585655017e-05,4.71668051736085e-05
6.23819277543049e-06,3.82939328310526e-06,1.013216937061e-05,2.01997554291458e-05
4.29083841508084e-06,3.20484665709017e-06,9.90975789658154e-06,1.74054429687525e-05
1.42619466559642e-05,8.859846601935e-06,1.75031617513523e-05,4.06249550092516e-05
5.05484163060632e-06,3.01893947258601e-06,8.84021847590262e-06,1.69139995790949e-05
5.21312377617648e-06,4.20112816705573e-06,9.87378189021228e-06,1.92880338334445e-05
3.9335905521498e-06,3.0981918584888e-06,8.38490627415479e-06,1.54166886847934e-05
4.70844324913651e-06,3.25563325200501e-06,9.43005481359166e-06,1.73941313147332e-05
1.05588272077051e-05,4.98710467582092e-06,1.26496091500589e-05,2.81955410335849e-05
5.73845580567955e-06,2.97700995805825e-06,9.46270149869042e-06,1.81781672624282e-05
5.7166338865653e-06,6.37298745008439e-06,1.22883525326156e-05,2.43779738692653e-05
6.26961269180845e-06,5.29893934598377e-06,1.35177941273366e-05,2.50863461651288e-05
7.61257114338575e-06,5.4493614777444e-06,1.3606297741134e-05,2.66682303622641e-05
5.26775260758466e-06,4.04123427745457e-06,1.27506718928935e-05,2.20596587779327e-05
7.80345331313156e-06,5.3922546327128e-06,1.59788934140926e-05,2.91746013599369e-05
7.05105348726222e-06,4.47237174945694e-06,1.36331260518242e-05,2.51565512885434e-05
5.05650807947567e-06,3.93533845692363e-06,1.27095783511209e-05,2.17014248875202e-05
6.54598025304928e-06,6.9829970298291e-06,1.25647565610495e-05,2.60937338439279e-05
6.14191197836564e-06,3.38501392338555e-06,9.47301584067658e-06,1.89999417424278e-05
4.74517247523952e-06,3.46345112315465e-06,9.22450302511196e-06,1.74331266235061e-05
4.63183467258748e-06,3.23146614344315e-06,8.50572401904507e-06,1.63690248350757e-05
4.69841357263781e-06,3.20948692983504e-06,8.77277734904707e-06,1.66806778515199e-05
1.00436768058714e-05,8.16788709567467e-06,1.52738247079348e-05,3.34853886094809e-05
1.29973723001225e-05,1.06376882286439e-05,1.7430173087683e-05,4.10652336164494e-05
3.26642507702392e-06,2.80417510706698e-06,8.21880217948588e-06,1.42894023635768e-05
4.30948735126894e-06,3.17364744765816e-06,8.6605129843884e-06,1.61436477833155e-05
3.58961872674124e-05,3.74382668245192e-05,4.22253903180439e-05,0.000115559844409975
1.01695686414039e-05,8.01744798407113e-06,2.17636256620767e-05,3.99506422875517e-05
6.53597768258147e-06,6.14316257421227e-06,1.21577723775024e-05,2.48369126342961e-05
4.16016394208767e-06,2.88814332364149e-06,9.01638774781946e-06,1.60646950135486e-05
5.48183264982807e-06,3.12951501228687e-06,1.03846961022688e-05,1.89960437643838e-05
3.9763822782652e-06,2.82733886749639e-06,8.63836539156033e-06,1.54420865373219e-05
5.80729840660093e-05,2.62744772188554e-05,4.73727807933687e-05,0.000131720242078233
3.04268181468681e-05,2.53834373537329e-05,3.6290708826563e-05,9.2100964327164e-05
7.47202821667989e-06,4.0609840032998e-06,1.07528796655595e-05,2.22858918855392e-05
1.90209080035266e-05,2.24876356331907e-05,1.48879742338079e-05,5.63965178705252e-05
6.56433062958943e-06,6.68784089215951e-06,1.22929835837372e-05,2.55451551054862e-05
8.34976433879631e-06,1.05196467861228e-05,1.35063282363004e-05,3.23757393612195e-05
7.01258127271062e-06,6.83987861227709e-06,1.14824054921786e-05,2.53348653771663e-05
3.90105259535733e-06,2.7199909564008e-06,8.26232305072487e-06,1.4883366602483e-05
3.54476353133115e-06,2.58780229799338e-06,8.08709843817767e-06,1.42196642675022e-05
4.5058009141845e-06,4.8376109061445e-06,9.12893495215711e-06,1.84723467724861e-05
3.33756189045302e-06,2.5533119266211e-06,7.89097375562812e-06,1.37818475727022e-05
3.81939779882078e-06,4.44351267080446e-06,8.57031392197693e-06,1.68332243916022e-05
1.04383988558164e-05,9.51644448280509e-06,1.32415406022205e-05,3.3196383940842e-05
7.82111983064291e-06,4.68173686745105e-06,1.23876358861639e-05,2.48904925842578e-05
1.78669699471727e-05,7.06656776568723e-06,1.52552047340957e-05,4.01887424469556e-05
1.60701234674759e-05,6.11106903971628e-06,1.47121624773524e-05,3.68933549845446e-05
1.48383275465395e-05,6.23309219950515e-06,1.34604729932176e-05,3.45318927392622e-05
1.39926543960093e-05,5.70871550384165e-06,1.36443963070391e-05,3.33457662068901e-05
2.09407362023356e-05,1.87117110168855e-05,2.423623390617e-05,6.38886811253911e-05
8.79618297869251e-06,7.15613741386318e-06,1.76488503163935e-05,3.36011707089492e-05
6.1164557928748e-06,3.88427010272139e-06,1.12369294753506e-05,2.12376553709468e-05
3.94694208138167e-06,2.99389580974238e-06,8.29695468512122e-06,1.52377925762453e-05
5.28431297205756e-06,3.49518872925051e-06,9.11946037035634e-06,1.78989620716644e-05
9.19375614664734e-06,3.89764877800179e-06,9.78605384123859e-06,2.28774587658877e-05
8.90486197248323e-06,4.24120380795882e-06,9.4355822195291e-06,2.25816479999712e-05
1.23978076535598e-05,8.72230075687894e-06,1.51234291162494e-05,3.62435375266882e-05
1.22209765033916e-05,6.01476954285861e-06,1.48870744141455e-05,3.31228204603958e-05
9.33537337848704e-06,4.15777515055119e-06,1.2270924819385e-05,2.57640733484232e-05
7.1453310863962e-06,5.72837857320663e-06,1.13037053033948e-05,2.41774149629976e-05
5.02514772724801e-06,3.27116708760044e-06,1.02631853852579e-05,1.85595002001064e-05
5.95617807336471e-06,3.25998679215847e-06,1.02624143946564e-05,1.94785792601796e-05
4.84036419684279e-06,3.15399767442658e-06,9.55170506740175e-06,1.75460669386711e-05
6.56140386811148e-06,4.35581084085648e-06,1.13572927702945e-05,2.22745074792624e-05
4.81791982225457e-06,3.48595447653559e-06,9.73976158381802e-06,1.80436358826082e-05
3.97650400989865e-06,2.74406943677018e-06,8.09132487935374e-06,1.48118983260226e-05
1.95451335758571e-05,3.91736913932904e-05,2.5517462668077e-05,8.42362876372246e-05
4.6449969774042e-06,4.13220547475235e-06,9.18744471329076e-06,1.79646471654473e-05
3.65413557470272e-06,3.22084200226411e-06,7.79343654112598e-06,1.46684141180928e-05
1.45523540366802e-05,9.09725730561589e-06,2.74761229535767e-05,5.11257342958728e-05
7.2317101106888e-06,8.85092705910957e-06,9.71181638403927e-06,2.57944535538376e-05
4.17414451977391e-06,6.3076016253417e-06,8.83650125285992e-06,1.93182473979755e-05
6.76246353473153e-06,6.95758616308159e-06,1.10356246855158e-05,2.4755674383329e-05
4.11539913935388e-06,6.96757629948088e-06,1.02443653759916e-05,2.13273408148264e-05
4.39959018256495e-06,5.15199313458254e-06,8.98201124636529e-06,1.85335945635128e-05
4.00564225084008e-06,5.65894946880495e-06,8.9085998582495e-06,1.85731915778945e-05
5.49249009362963e-06,6.85889938137632e-06,1.01114642961941e-05,2.24628537712e-05
3.04273154973884e-06,2.57461063307748e-06,7.73584674329352e-06,1.33531889261098e-05
3.09265021145447e-06,2.4763760619715e-06,7.24010065641577e-06,1.28091269298417e-05
3.04805579920966e-06,2.49470773258622e-06,6.94735141430482e-06,1.24901149461007e-05
3.11717609758286e-06,2.49910591647236e-06,7.02890578872163e-06,1.26451878027769e-05
3.10127907671605e-06,2.43878241215278e-06,7.23855761429494e-06,1.27786191031638e-05
5.20757827253318e-06,5.37651370063948e-06,9.06011469216757e-06,1.96442066653402e-05
1.06557438807485e-05,5.7903973713658e-06,1.27377375644782e-05,2.91838788165926e-05
6.73926677920028e-06,4.44955395022512e-06,1.22407302343646e-05,2.342955096379e-05
4.54538895809621e-06,3.85919489230696e-06,8.84544396980804e-06,1.72500278202112e-05
3.63871129157037e-06,3.02405217190781e-06,8.60868474102329e-06,1.52714482045015e-05
3.25516022888948e-06,2.69386231462726e-06,8.37236950363589e-06,1.43213920471526e-05
5.80306559814542e-06,3.57725459930377e-06,9.01433926740803e-06,1.83946594648572e-05
1.90995498694001e-05,2.19671917716654e-05,2.93400353321078e-05,7.04067769731733e-05
1.2234644176889e-05,7.968839781463e-06,1.60916853073365e-05,3.62951692656885e-05
3.5126848337309e-06,2.75616447040372e-06,7.77035531171584e-06,1.40392046158505e-05
3.06881873799072e-06,2.46891168838195e-06,7.4336854669902e-06,1.29714158933629e-05
3.04107307541808e-06,2.48957885759123e-06,7.12422552109578e-06,1.26548774541051e-05
3.04113929148024e-06,2.38719754786928e-06,6.8657341141649e-06,1.22940709535144e-05
3.08987043351956e-06,2.3989310400967e-06,6.58873486059528e-06,1.20775363342115e-05
3.09049514290903e-06,2.4528454798746e-06,6.8119252673333e-06,1.23552658901169e-05
8.48231356404795e-06,7.64890295864963e-06,1.15853865581488e-05,2.77166030808464e-05
7.91182531007573e-06,6.19007083963064e-06,1.078260070156e-05,2.48844968512664e-05
5.3087698305879e-06,4.63982000930822e-06,8.47357985440443e-06,1.84221696943006e-05
5.4392070556274e-06,4.15594724686755e-06,8.35403411977045e-06,1.79491884222654e-05
5.00566881851219e-06,4.0690904148964e-06,8.00921274529667e-06,1.70839719787053e-05
5.1805857976526e-06,4.0433563405266e-06,7.80029170919142e-06,1.70242338473706e-05
5.34442821118884e-06,4.15420756706048e-06,8.17008000383059e-06,1.76687157820799e-05
5.2612601940227e-06,3.9893409282604e-06,8.02822789712512e-06,1.72788290194082e-05
5.58383852500044e-06,4.56523420329151e-06,8.08706601040243e-06,1.82361387386944e-05
4.76813083264975e-06,3.66460866938161e-06,7.84680403819393e-06,1.62795435402253e-05
4.85090574665745e-06,3.80100235484641e-06,7.98164011856171e-06,1.66335482200656e-05
4.54145019135398e-06,3.30998023445574e-06,7.61833018412499e-06,1.54697606099347e-05
5.29924450670152e-06,3.46433887073285e-06,8.8985972900783e-06,1.76621806675127e-05
5.01474045923866e-06,3.25762162002455e-06,7.77654442060022e-06,1.60489064998634e-05
4.95292824556649e-06,3.19522700493992e-06,8.06480757502972e-06,1.62129628255361e-05
4.99548897269673e-06,3.14487046799116e-06,7.81090586685139e-06,1.59512653075393e-05
4.27233657832873e-06,3.02755723602857e-06,7.44770552253733e-06,1.47475993368946e-05
4.41119434149074e-06,2.91219138786227e-06,7.0678482433065e-06,1.43912339726595e-05
4.53982930612036e-06,2.83000610921815e-06,7.50508215911769e-06,1.48749175744562e-05
4.1679201773613e-06,2.87991458710488e-06,6.9480573735459e-06,1.39958921380121e-05
4.30935435163017e-06,2.85186254741491e-06,7.39085928142976e-06,1.45520761804748e-05
4.75879790825889e-06,3.05653078542572e-06,7.97220939395879e-06,1.57875380876434e-05
4.59303935224663e-06,3.07957168596443e-06,7.22848893749119e-06,1.49010999757023e-05
4.9066887280504e-06,3.09195505036555e-06,7.62686191262479e-06,1.56255056910407e-05
4.62391617413527e-06,3.0853989950992e-06,7.74590323278035e-06,1.54552184020148e-05
4.30325883015162e-06,2.78204718579577e-06,7.99389385127276e-06,1.50791998672201e-05
4.35149012636436e-06,2.79584919079074e-06,7.22758074666592e-06,1.4374920063821e-05
4.29487213556895e-06,2.75976883508004e-06,7.01405397254058e-06,1.40686949431896e-05
4.46397476038102e-06,2.80327870411244e-06,7.28884381891003e-06,1.45560972834035e-05
4.42658714636676e-06,2.91553564512515e-06,7.71965524125794e-06,1.50617780327498e-05
4.26091510816835e-06,2.86148889601804e-06,7.33768975578994e-06,1.44600937599763e-05
4.06256969515298e-06,2.75495697275133e-06,6.92340720644374e-06,1.3740933874348e-05
5.37082197246888e-06,3.10510920333309e-06,7.42540094697038e-06,1.59013321227724e-05
4.25037872692559e-06,2.68889136253947e-06,7.18757725261779e-06,1.41268473420828e-05
4.36730807929583e-06,2.85983924246937e-06,7.37951474376807e-06,1.46066620655333e-05
4.49527385967716e-06,2.96468867947791e-06,7.6292513947804e-06,1.50892139339355e-05
4.75178386701616e-06,2.90270138291972e-06,7.56151898504742e-06,1.52160042349833e-05
4.45125043398085e-06,2.94212139900943e-06,8.02193344736412e-06,1.54153052803544e-05
4.16735969866204e-06,2.65952555568056e-06,7.53916189697414e-06,1.43660471513167e-05
4.7171246031986e-06,3.11344276027853e-06,8.41855901094114e-06,1.62491263744183e-05
4.46723096584789e-06,3.13163728262011e-06,7.86580622849848e-06,1.54646744769665e-05
5.32788445690241e-06,3.27399115502867e-06,8.39028714012368e-06,1.69921627520548e-05
4.47276024560904e-06,3.06651982203728e-06,8.17253905221256e-06,1.57118191198589e-05
4.44549750311734e-06,2.94388530288622e-06,7.59377736357681e-06,1.49831601695804e-05
4.59939006137694e-06,2.88555430957701e-06,6.95847884044704e-06,1.4443423211401e-05
4.04426629077201e-06,2.62322953327681e-06,7.52125259497649e-06,1.41887484190253e-05
4.24937337741464e-06,2.83963648788013e-06,7.9539899253019e-06,1.50429997905967e-05
4.56424476272245e-06,2.88173832847452e-06,7.65512136697333e-06,1.51011044581703e-05
4.30444980272749e-06,2.72899392018063e-06,7.65835594650223e-06,1.46917996694104e-05
3.41272667242844e-06,2.58080200071599e-06,6.98781418840611e-06,1.29813428615505e-05
6.0928747207004e-06,5.53633756097795e-06,7.74639218237571e-06,1.93756044640541e-05
4.4201345442734e-06,4.31937405231103e-06,1.11361143630227e-05,1.98756229596071e-05
4.25260326543663e-06,3.08118031046774e-06,9.32507394831858e-06,1.6658857524223e-05
5.97465672139308e-06,5.29722464045195e-06,8.18958199017607e-06,1.94614633520211e-05
3.18018983427229e-06,2.45203073932046e-06,7.05754718904431e-06,1.26897677626371e-05
3.52866407005051e-06,3.06413330575026e-06,9.44489210724229e-06,1.60376894830431e-05
4.22297545476386e-06,4.51281601710963e-06,1.38384108326419e-05,2.25742023045154e-05
4.0160439879676e-06,3.63612804715248e-06,1.04937462197267e-05,1.81459182548467e-05
2.98291596381675e-06,2.4303485811122e-06,6.70157403440088e-06,1.21148385793298e-05
3.06238581902967e-06,2.40015651055313e-06,6.78209040406759e-06,1.22446327336504e-05
3.05784656615293e-06,2.40824126648589e-06,6.70911879264554e-06,1.21752066252844e-05
5.9015133715287e-06,4.31028859299773e-06,1.21176886654297e-05,2.23294906299561e-05
1.13453491369589e-05,8.39615979383985e-06,1.75641795789439e-05,3.73056885097426e-05
7.4914071875154e-06,5.73511984027701e-06,1.35669983236142e-05,2.67935253514066e-05
9.21362391962781e-06,1.43523776074402e-05,1.64130877902777e-05,3.99790893173458e-05
3.20922200290897e-06,2.57687216802676e-06,7.73501938765717e-06,1.35211135585929e-05
3.08063211387091e-06,2.52885354535584e-06,6.8743464628696e-06,1.24838321220964e-05
4.26189411679467e-06,3.03269843189349e-06,8.36700002732952e-06,1.56615925760177e-05
5.75138201050622e-06,3.71976172095006e-06,9.22488835511858e-06,1.86960320865749e-05
5.66639405247176e-06,3.45204169041213e-06,8.18777854272062e-06,1.73062142856045e-05
5.33600319665306e-06,3.39342205734055e-06,7.80057462179559e-06,1.65299998757892e-05
5.27684417517881e-06,3.51956629148573e-06,7.94498642345351e-06,1.6741396890118e-05
5.22771374465753e-06,3.25938800998141e-06,8.21401403893244e-06,1.67011157935714e-05
5.5101531267964e-06,3.69326200585555e-06,8.20306444675375e-06,1.74064795794057e-05
5.3910940057786e-06,3.53400989997441e-06,8.47278884619955e-06,1.73978927519526e-05
5.19544184410161e-06,3.32204236859277e-06,8.23577696256029e-06,1.67532611752547e-05
5.53049904600992e-06,3.48044811436177e-06,8.30731489076554e-06,1.73182620511372e-05
3.20963145328569e-05,4.97098244367572e-05,4.64416998342163e-05,0.00012824783880383
4.61743665211085e-05,2.69981650385498e-05,4.78464490016964e-05,0.000121018980561355
7.94835112372104e-06,7.33021836490953e-06,1.33683610967031e-05,2.86469305853336e-05
4.18102959861949e-06,3.21169677858519e-06,9.43081066741021e-06,1.68235370446149e-05
1.39711694559852e-05,1.34458710317081e-05,1.5747185282036e-05,4.31642257697293e-05
8.99648842257863e-06,6.42287052774072e-06,1.51432699275505e-05,3.05626288778698e-05
6.93285649415982e-06,6.77929757476702e-06,9.30942904058344e-06,2.30215831095103e-05
3.327971870266e-06,2.80513396834048e-06,7.04583608474412e-06,1.31789419233506e-05
7.04129463173765e-06,6.19888954794052e-06,1.10261701262916e-05,2.42663543059698e-05
4.78522635751556e-06,3.50091056940922e-06,8.59930318683944e-06,1.68854401137642e-05
4.8025969676552e-06,3.66227523375076e-06,8.28205999778906e-06,1.6746932199195e-05
3.94465127686019e-06,3.24172307557133e-06,8.08367373865381e-06,1.52700480910853e-05
4.51087112086476e-06,3.50758055863921e-06,8.25610898425328e-06,1.62745606637572e-05
3.85220057553467e-06,2.74899477704273e-06,7.36737657818335e-06,1.39685719307608e-05
4.58822851491609e-06,3.57331052479375e-06,7.9882433663728e-06,1.61497824060826e-05
3.91442841611692e-06,3.35545899755664e-06,7.89501339430036e-06,1.51649008079739e-05
1.89791553692729e-05,2.58623121599118e-05,3.24233597247201e-05,7.72648272539048e-05
1.06256817801381e-05,1.00454147523465e-05,1.67810837832296e-05,3.74521803157142e-05
3.09388754715244e-06,2.67988265967758e-06,7.25277246332204e-06,1.30265426701521e-05
2.81268574173775e-06,2.64573635287383e-06,6.62196223312283e-06,1.20803843277344e-05
6.63925639366023e-06,5.11250649561384e-06,1.1044211288329e-05,2.27959741776031e-05
1.04582765825308e-05,7.41190428815487e-06,1.3594485199904e-05,3.14646660705897e-05
6.66022081574287e-06,4.07482888601861e-06,1.07208325596862e-05,2.14558822614477e-05
9.1573705167208e-06,5.01166149136535e-06,1.28035295197249e-05,2.6972561527811e-05
1.90395796859163e-05,9.13985132417667e-06,2.7026848190575e-05,5.5206279200668e-05
1.44097579363371e-05,6.48272843368951e-06,1.5697780323639e-05,3.65902666936656e-05
3.46548523515675e-05,2.60417075930854e-05,2.89436357227395e-05,8.96401956673924e-05
9.15160573176548e-05,5.64642486051592e-05,5.36648019477837e-05,0.000201645107870598
1.50678745099527e-05,7.76169050837027e-06,1.5783955542404e-05,3.8613520560727e-05
1.32868732748733e-05,1.91217842170719e-05,2.39430570669264e-05,5.63517145588716e-05
3.63847602078011e-06,3.12943266775314e-06,8.70850950199645e-06,1.54764181905297e-05
6.45071549243145e-06,4.55154524535024e-06,9.84591728163221e-06,2.08481780194139e-05
3.29532328630957e-06,2.73351656591538e-06,8.45592552818144e-06,1.44847653804064e-05
2.97454000539409e-06,2.62562578819512e-06,7.4493586675356e-06,1.30495244611248e-05
5.3082600900134e-06,8.35363371819427e-06,1.09965246559209e-05,2.46584184641286e-05
3.29315957117008e-06,2.5016537809612e-06,7.68935737718359e-06,1.34841707293149e-05
3.36929943270532e-06,2.83306457689453e-06,7.11702800198672e-06,1.33193920115866e-05
3.4767136608834e-06,2.83796617098863e-06,7.54028630515314e-06,1.38549661370252e-05
6.28118349709255e-06,4.14417539277072e-06,1.24310923147607e-05,2.2856451204624e-05
3.58410082113168e-06,2.79221837867212e-06,8.37587547095718e-06,1.4752194670761e-05
4.26012434967159e-06,3.20241446184174e-06,8.04123511697968e-06,1.5503773928493e-05
1.16192422710146e-05,1.31189227749129e-05,1.95110598145908e-05,4.42492248605182e-05
4.80040271074241e-05,2.65523796514664e-05,5.66887841733087e-05,0.000131245190932199
0.000477664957209693,0.00134082045010359,0.00111257864841573,0.00293106405572902
0.000492905517927876,0.00185435964182271,0.00145051366637025,0.00379777882612083
0.000128753428691516,0.000285668296395385,0.000184490021309742,0.000598911746396643
4.88937624121066e-05,4.50544976526207e-05,6.16117571342975e-05,0.000155560017199025
5.80014778379271e-06,3.90127192394055e-06,1.44041779213506e-05,2.41055976290838e-05
7.85532761005211e-06,4.91594118714455e-06,1.79527236290905e-05,3.07239924262872e-05
2.04085019327946e-05,1.32800928888744e-05,3.80459415334707e-05,7.17345363551397e-05
1.29244128421111e-05,8.03553649363067e-06,2.89368132786801e-05,4.98967626144219e-05
1.2092865608339e-05,1.286444615726e-05,2.82045263153353e-05,5.31618380809343e-05
2.52408358523358e-05,2.37094136136485e-05,3.74562505996448e-05,8.6406500065629e-05
3.3389577943868e-05,3.26106718341656e-05,4.43341178806831e-05,0.000110334367658717
3.76766769455466e-05,2.033062866882e-05,5.04063025019534e-05,0.00010841360811632
2.76880760049822e-05,1.57009830974337e-05,3.57379761712516e-05,7.91270352736675e-05
2.99595130624008e-05,2.56184544267982e-05,3.83036703691964e-05,9.38816378583954e-05
2.17499720354208e-05,3.87527958478634e-05,4.09594590448574e-05,0.000101462226928142
3.05063823926797e-05,4.67686752363576e-05,6.32134164559174e-05,0.000140488474084955
4.02948758074179e-05,2.47235416210625e-05,7.78100505695397e-05,0.00014282846799802
0.000575688631303046,2.17393301620652e-05,4.78121398115042e-05,0.000645240101276616
6.14751872978071e-06,4.72149715854839e-06,1.28640154440378e-05,2.37330313323669e-05
2.82421216933661e-05,4.48228757296961e-05,4.48185841627343e-05,0.000117883581585797
3.87459545269672e-05,2.71786368225088e-05,4.06396692712102e-05,0.000106564260620686
1.67643845180079e-05,1.78411412947688e-05,2.51396776443651e-05,5.97452034571417e-05
4.63231567730322e-05,3.28442653055588e-05,4.53300505273873e-05,0.000124497472605978
9.3365403283978e-06,1.08616085419931e-05,2.64962322745718e-05,4.66943811449626e-05
5.31164771938295e-06,3.75973712775239e-06,1.32428730459591e-05,2.23142578930944e-05
4.25621255008122e-06,3.74569770150387e-06,1.15046248022567e-05,1.95065350538418e-05
8.37021794533678e-06,9.88603342849373e-06,2.24355528817791e-05,4.06918042556096e-05
5.73296742274318e-05,8.76645601940338e-05,0.000130869400926213,0.000275863635347679
3.47250241778731e-05,2.77486267691544e-05,3.88390548589284e-05,0.000101312705805956
2.81000529053727e-05,1.97557964828298e-05,3.91486159337106e-05,8.70044653219131e-05
8.06816830398902e-06,6.1079477020524e-06,1.94662818591848e-05,3.36423978652262e-05
6.88592689270646e-05,7.32269169887512e-05,0.000116688961289453,0.000258775147205269
7.05633837457003e-05,0.000100253132134859,8.95716337163299e-05,0.000260388149596889
0.000247378744843968,0.000584155296926435,0.000206901331676872,0.00103843537344727
0.000452795288770692,0.00105226882209972,0.000690382781116887,0.0021954468919873
0.000906766753344866,0.00330446672088771,0.00261159437914904,0.00682282785338162
0.000210211193726893,0.000365702012600306,0.000189941436729013,0.000765854643056212
1.16733322980644e-05,9.01950525040086e-06,2.26748168944133e-05,4.33676544428785e-05
6.33021653039384e-06,9.96442879244489e-06,1.4983215982399e-05,3.12778613052377e-05
1.48088835092952e-05,1.09304272230076e-05,2.21173564581297e-05,4.78566671904325e-05
6.90366491509696e-06,4.33844772204657e-06,1.05912548378282e-05,2.18333674749717e-05
1.17608951372598e-05,7.78160341934147e-06,1.3824274635506e-05,3.33667731921072e-05
5.37139765387001e-06,3.6369218694907e-06,1.04272145592075e-05,1.94355340825682e-05
4.63843630805999e-06,3.49003746841854e-06,9.08922988684274e-06,1.72177036633213e-05
4.4765510227744e-06,3.43600379567032e-06,9.20880785833187e-06,1.71213626767766e-05
1.45470665090239e-05,9.85036420580604e-06,2.28321764912946e-05,4.72296072061245e-05
6.54006070762074e-06,4.68621602520311e-06,1.20128709968403e-05,2.32391477296641e-05
5.0045933205481e-06,3.34729482520371e-06,1.02679277182621e-05,1.86198158640139e-05
4.51611808303978e-06,3.0177698870689e-06,1.00078272673455e-05,1.75417152374542e-05
3.67485996106484e-06,2.87406335373377e-06,9.12405279936884e-06,1.56729761141674e-05
4.56863390044902e-06,3.36706272823175e-06,9.87813533215507e-06,1.78138319608358e-05
3.96103034735299e-06,2.91328432177561e-06,8.94921514618203e-06,1.58235298153106e-05
4.18267245749254e-06,2.99447847145067e-06,8.83617567492581e-06,1.6013326603869e-05
6.3450698335285e-06,3.98635263097888e-06,1.16525621671037e-05,2.19839846316111e-05
4.01234569957185e-06,2.83683886841965e-06,8.61988040701693e-06,1.54690649750084e-05
3.42331296707035e-06,2.69228176392658e-06,8.2601254961482e-06,1.43757202271451e-05
4.37721658224076e-06,2.92348009476416e-06,8.85254901132635e-06,1.61532456883313e-05
4.32597671010145e-06,3.06429566713352e-06,9.44377186026345e-06,1.68340442374984e-05
4.04315647303774e-06,2.85453444638902e-06,9.25147781333413e-06,1.61491687327609e-05
4.64285139529325e-06,4.0847254802243e-06,9.29415883885388e-06,1.80217357143714e-05
4.07005939072807e-06,2.95809784886559e-06,8.83657820882202e-06,1.58647354484157e-05
3.93260899766609e-06,2.95838968362783e-06,9.17875067565619e-06,1.60697493569501e-05
5.35971984123995e-06,3.46301951315178e-06,1.08346391612997e-05,1.96573785156914e-05
3.56679341536438e-06,2.64706506785538e-06,8.50145783404103e-06,1.47153163172608e-05
5.57209566367327e-06,4.61851396739415e-06,9.55959058662671e-06,1.97502002176941e-05
4.46331617183776e-06,3.072997863182e-06,8.92420516182221e-06,1.6460519196842e-05
4.09839668098176e-06,3.1909141424448e-06,9.2835359289113e-06,1.65728467523379e-05
4.13532107595738e-06,2.90110966515695e-06,8.69707697564718e-06,1.57335077167615e-05
4.10916606290844e-06,2.82708289505673e-06,9.03802119653894e-06,1.59742701545041e-05
4.12521562926495e-06,3.01440496140168e-06,8.72254655090476e-06,1.58621671415714e-05
3.91260208454351e-06,2.97591857141607e-06,8.52201734725017e-06,1.54105380032097e-05
3.56731405533496e-06,2.77680002781335e-06,8.49860191539107e-06,1.48427159985394e-05
4.41407157045471e-06,3.46454832025905e-06,8.86640476816824e-06,1.6745024658882e-05
4.34491268327861e-06,3.29110913281206e-06,8.77241626280307e-06,1.64084380788937e-05
4.34849291755296e-06,3.05757046929481e-06,8.64780948191861e-06,1.60538728687664e-05
3.64529484643511e-06,2.82498688034149e-06,8.36803291216281e-06,1.48383146389394e-05
3.75086044742265e-06,2.73662378077069e-06,8.08304495250409e-06,1.45705291806974e-05
3.33018431609491e-06,2.5684300798268e-06,7.70990967417374e-06,1.36085240700955e-05
4.44085735520731e-06,3.51931199381071e-06,9.64814084578248e-06,1.76083101948005e-05
4.51109515309558e-06,3.66469612329151e-06,8.77271316500476e-06,1.69485044413918e-05
5.00646508204762e-06,3.31255728511432e-06,9.086676980879e-06,1.74056993480409e-05
4.70476353850863e-06,3.10723891737623e-06,8.66881600002265e-06,1.64808184559075e-05
4.80849200528055e-06,4.0461304309889e-06,7.95836664837469e-06,1.68129890846441e-05
3.58413824875696e-06,2.77940290872189e-06,8.15955551326646e-06,1.45230966707453e-05
4.27140961264059e-06,3.02361393566581e-06,8.49879972368911e-06,1.57938232719955e-05
4.0207887968913e-06,3.14413315205785e-06,8.5063916145524e-06,1.56713135635016e-05
4.21589382797951e-06,3.19657795003093e-06,9.07024123894311e-06,1.64827130169536e-05
4.32354111834835e-06,3.54334537764924e-06,9.69518541967783e-06,1.75620719156754e-05
4.76296750038505e-06,3.27377799920962e-06,9.36969872315248e-06,1.74064442227472e-05
4.59205834977274e-06,3.20541852305617e-06,8.01414326807152e-06,1.58116201409004e-05
6.3718698821631e-05,0.000135778692008047,0.000122151920164591,0.00032164931099427
8.40937898955451e-06,5.34443129240481e-06,1.43323315831489e-05,2.80861418651083e-05
4.89317860180605e-06,3.31176954534827e-06,9.15964931084397e-06,1.73645974579983e-05
5.14360465548389e-06,3.51747730796128e-06,1.06296526715326e-05,1.92907346349778e-05
6.7160933907822e-06,3.76510287184842e-06,9.99878939739894e-06,2.04799856600296e-05
5.85674216501615e-06,3.53493435771977e-06,9.87812298441285e-06,1.92697995071488e-05
5.54889775080115e-06,3.75686678542948e-06,9.08327494575471e-06,1.83890394819853e-05
7.22860754728456e-06,5.29368028834873e-06,1.0810464421931e-05,2.33327522575643e-05
5.31846927685815e-06,3.72971979233178e-06,8.67676829917671e-06,1.77249573683666e-05
4.46747648776213e-06,3.42370273321219e-06,8.19261531301314e-06,1.60837945339875e-05
6.22698919695668e-06,4.28490653694057e-06,1.018451092929e-05,2.06964066631872e-05
6.572802936076e-06,3.91573633399739e-06,1.00320888428852e-05,2.05206281129586e-05
5.8294809546562e-06,4.05160840938888e-06,1.00363813807672e-05,1.99174707448123e-05
3.33932667599202e-06,2.71652051677995e-06,7.88575373091935e-06,1.39416009236913e-05
5.00433693451212e-06,4.92394748273302e-06,8.92993517487563e-06,1.88582195921208e-05
8.32264170341932e-06,1.2601797048663e-05,1.53603976837272e-05,3.62848364358095e-05
4.8527011505679e-06,3.32098298559123e-06,8.88886153917088e-06,1.706254567533e-05
6.05369151292887e-06,5.131967415527e-06,1.29879042684575e-05,2.41735631969133e-05
4.46077591791015e-06,3.29789328047697e-06,8.64630110331326e-06,1.64049703017004e-05
3.6394284415158e-06,2.69337234514818e-06,7.75865410093731e-06,1.40914548876013e-05
3.20358275673682e-06,2.64422182761263e-06,7.75852539511404e-06,1.36063299794635e-05
5.04933680099586e-06,3.3998414593725e-06,9.1197856050378e-06,1.75689638654062e-05
5.16944258380138e-06,4.94528359348508e-06,1.31829755705333e-05,2.32977017478198e-05
1.47003993098186e-05,1.89041538806383e-05,2.10377460204869e-05,5.46422992109438e-05
3.02177574548214e-05,1.67091182136955e-05,3.54504327785055e-05,8.23773084470225e-05
3.55266567718474e-05,1.53387148473501e-05,2.43776507790933e-05,7.52430223982908e-05
3.97039329609067e-05,2.04491036534309e-05,3.13042892632974e-05,9.1457325877635e-05
8.04178985826695e-05,6.21382852757641e-05,7.78041691123558e-05,0.000220360352970789
8.31288506289495e-05,3.46732120244184e-05,8.0726496751212e-05,0.00019852855940458
0.000114207826437681,4.41557658635152e-05,7.27273601925357e-05,0.000231090952493732
0.000108092990046439,3.63403731499168e-05,7.42381387123428e-05,0.000218671501908699
9.60107415912274e-05,3.60950041881067e-05,6.7889775826546e-05,0.00019999552160588
0.000126755056093332,0.000110865853086131,0.000113543538162102,0.000351164447341565
0.000271338905146613,0.000206208758036003,0.000185643910321511,0.000663191573504126
0.000210020561120914,0.00113404924614849,0.000343590979245982,0.00168766078651539
