potencia_x,potencia_y,potencia_z,potencia_total_xyz
0.00012923154570307,0.000428292261096295,0.000574027992688432,0.0011315517994878
0.000129891858165076,0.000152443743355318,0.000152086982171591,0.000434422583691984
0.000448832625822135,0.000875167997593997,0.000839486068551652,0.00216348669196778
0.000229072337003863,0.00066318593079146,0.00039640918686808,0.0012886674546634
6.53640944104318e-05,4.31322060913768e-05,4.92376549042814e-05,0.00015773395540609
5.81712729569856e-05,1.99475847677803e-05,2.60316726351659e-05,0.000104150530359932
4.15307384938511e-05,1.90960715087612e-05,2.81693748234812e-05,8.87961848260935e-05
0.000179599857159212,0.000286065444083855,0.000288730544149687,0.000754395845392754
5.11003511635475e-05,4.29832343385108e-05,4.27683267868974e-05,0.000136851912288956
6.7245896471197e-05,0.000110096968996132,0.000132778315948483,0.000310121181415812
0.000161867968721067,8.99458876912859e-05,0.000138777179695858,0.000390591036108211
9.09125682090664e-05,6.37219225351401e-05,7.20635961222689e-05,0.000226698086866475
0.000100373417659845,6.5433088436644e-05,0.000106762194926619,0.000272568701023108
4.03119834345446e-05,4.43785947146654e-05,5.58971319832479e-05,0.000140587710132458
0.000127577873947918,0.000140101824145823,8.46036044464464e-05,0.000352283302540187
6.09315899391841e-05,5.13353892135495e-05,6.76424656497742e-05,0.000179909444802508
7.11879874505343e-05,0.000191754929935676,0.000196170709113602,0.000459113626499813
4.07189384630213e-05,3.31040899216237e-05,9.24901746718091e-05,0.000166313203056454
8.970499177102e-06,6.9919278656347e-06,1.47302447363523e-05,3.06926717790891e-05
2.85929426095856e-05,3.64315173657684e-05,2.85252471180105e-05,9.35497070933645e-05
1.31316796722351e-05,7.57758218465504e-06,1.57530397313158e-05,3.6462301588206e-05
1.35355954658287e-05,6.79017170005726e-06,1.73283189995631e-05,3.76540861654491e-05
1.26861659573795e-05,8.57512601973076e-06,1.79863777310935e-05,3.92476697082038e-05
1.1330013593097e-05,6.8950572483809e-06,1.21953934666678e-05,3.04204643081456e-05
1.37724871421393e-05,1.50624520691804e-05,2.27099394792925e-05,5.15448786906122e-05
2.70644809527053e-05,2.32708324926525e-05,3.10891685229994e-05,8.14244819683572e-05
0.000155450772098776,0.000119612353542512,9.93122441816817e-05,0.00037437536982297
7.40457455588454e-06,4.84892853923647e-06,1.19310859913826e-05,2.41845890865036e-05
5.81877734250289e-05,5.12048508742025e-05,6.12098476257599e-05,0.000170602471924991
1.83463687548096e-05,1.04817598539534e-05,1.99199889224027e-05,4.87481175311657e-05
8.94954321372166e-06,4.44326003585089e-06,1.19452954094185e-05,2.53380986589911e-05
4.79342102235829e-06,3.44587778908024e-06,1.08758788832879e-05,1.91151776947264e-05
0.000114476524384432,0.000168487989843663,0.000190258128340243,0.000473222642568338
3.61339665390683e-06,3.83043729941228e-06,7.85244704866274e-06,1.52962810019818e-05
3.13446942138915e-06,3.15321915515788e-06,7.09905961588561e-06,1.33867481924326e-05
3.26637665454116e-06,3.03518335583327e-06,6.81538439274883e-06,1.31169444031233e-05
3.0556846714325e-06,2.98820138183346e-06,6.52866239544503e-06,1.2572548448711e-05
3.3578959403238e-06,3.3621120286146e-06,6.91622707092787e-06,1.36362350398663e-05
3.4100842763515e-06,3.33145708589819e-06,7.23143989366719e-06,1.39729812559169e-05
2.68867787088332e-05,7.60685747201111e-05,0.000102900326911177,0.000205855680340121
3.26865408667949e-05,6.71471533672479e-05,4.6659111861192e-05,0.000146492806095235
3.74988985274524e-06,3.71907388324595e-06,7.59634990438447e-06,1.50653136403757e-05
3.6105466027938e-06,3.44616127764725e-06,7.29056305361121e-06,1.43472709340523e-05
3.29703973142934e-06,3.23039930173186e-06,6.91545153972195e-06,1.34428905728832e-05
3.38922856014159e-06,3.18042462277493e-06,7.11689608881326e-06,1.36865492717298e-05
3.72866546913001e-06,3.36719188770884e-06,7.02241868572459e-06,1.41182760425634e-05
3.79812950752022e-06,3.50413874166603e-06,7.22847935881586e-06,1.45307476080021e-05
3.33945773034603e-06,3.17267671753328e-06,6.6477035574529e-06,1.31598380053322e-05
3.2221457702036e-06,3.29344972252256e-06,6.90073980769535e-06,1.34163353004215e-05
3.25908057449478e-06,3.27408914222993e-06,6.84738637243561e-06,1.33805560891603e-05
3.40816459685964e-06,3.24134566046734e-06,7.22386997553717e-06,1.38733802328641e-05
3.46244022331167e-06,3.5106029283082e-06,6.92164203311026e-06,1.38946851847301e-05
3.35649630212537e-06,3.26278951601215e-06,6.95818600869717e-06,1.35774718268347e-05
3.47312102181016e-06,3.54490821671472e-06,7.29696214002112e-06,1.4314991378546e-05
3.35061495057985e-06,3.14981853256467e-06,7.20716218045339e-06,1.37075956635979e-05
3.21208003843777e-06,3.2121473393542e-06,7.05374312211539e-06,1.34779704999074e-05
3.89302909754462e-06,3.32756995202244e-06,6.69471667304485e-06,1.39153157226119e-05
3.32996428923294e-06,3.09411769324736e-06,6.76799575408063e-06,1.31920777365609e-05
3.49177522670222e-06,3.1466104520993e-06,7.10276210033249e-06,1.3741147779134e-05
3.31627186295232e-06,3.09739661740807e-06,6.63098191545829e-06,1.30446503958187e-05
3.28010259930118e-06,3.05641984611362e-06,6.80206064672492e-06,1.31385830921397e-05
3.38406123682015e-06,3.16720667880897e-06,6.79471258184745e-06,1.33459804974766e-05
0.000381887463776696,0.00131197622724742,0.000921354118149881,0.002615217809174
0.000519343375954324,0.00198262079392498,0.00170458241229129,0.00420654658217059
3.72834367120932e-05,2.34621978755016e-05,3.79622381628182e-05,9.87078727504131e-05
1.90075670957238e-05,1.91571370600222e-05,2.75688670197806e-05,6.57335711755265e-05
2.18544178634777e-05,2.3470372217527e-05,2.89085191744493e-05,7.4233309255454e-05
1.59559278660145e-05,2.57400707735881e-05,3.03687629075624e-05,7.20647615471651e-05
6.56061862305348e-06,8.04429499731714e-06,1.1602848293866e-05,2.62077619142366e-05
3.40181256968749e-06,3.00483798736965e-06,8.15384180686605e-06,1.45604923639232e-05
3.47523999787962e-06,2.98661679855079e-06,7.29058897145419e-06,1.37524457678846e-05
3.35906322847466e-06,2.9822139074269e-06,7.52050744475046e-06,1.3861784580652e-05
3.28604485417677e-06,2.85850672120301e-06,7.94357921614633e-06,1.40881307915261e-05
3.4039731422931e-06,3.04619921868302e-06,8.00449468922779e-06,1.44546670502039e-05
3.67579075392553e-06,3.10951611705069e-06,8.46237226636453e-06,1.52476791373407e-05
3.28222120327843e-06,2.93908705633955e-06,7.82181811883347e-06,1.40431263784514e-05
4.44730300576491e-06,3.83686198276289e-06,8.73291790304844e-06,1.70170828915762e-05
0.000167608221591133,0.000284574102485773,0.000287739290417635,0.000739921614494541
0.000219292899845596,0.000479503704508413,0.000784132808136659,0.00148292941249067
0.000189417979488167,0.000430408226877994,0.000637010714292122,0.00125683692065828
0.000477735291355333,0.00169799136030103,0.00158046828233436,0.00375619493399072
0.00016234548687492,0.000406157717319834,0.000391993960583501,0.000960497164778255
0.000109698975639401,0.000256114923248575,0.000213400646722938,0.000579214545610914
9.34942902732075e-05,0.00016350410754733,0.000157510808447192,0.000414509206267729
9.03441112612577e-05,0.000187376279005195,0.000234643413568515,0.000512363803834968
8.99925415105135e-05,0.000174728152018899,0.000137969771426897,0.000402690464956309
4.85625516674887e-05,4.23934577729209e-05,5.78991351939495e-05,0.000148855144634359
0.000113224589409854,0.000199400716107704,0.000118331425587803,0.000430956731105361
6.97600982007712e-05,0.000101488409592134,8.41364083293224e-05,0.000255384916122228
2.00928197290068e-05,1.25720218770906e-05,2.13780421362904e-05,5.40428837423877e-05
1.64526122228496e-05,1.13728686706157e-05,2.54728015308994e-05,5.32982824243646e-05
1.12913765395932e-05,8.2703083357953e-06,1.4298689016759e-05,3.38603738921475e-05
1.60837466774162e-05,9.39995281282043e-06,1.6841317439382e-05,4.23250169296186e-05
0.000246168185426643,0.000336858778045708,0.000256241382626394,0.000839268346098745
0.000182664423558366,0.000259967666442924,0.000195463631053772,0.000638095721055062
6.69353930824748e-05,7.74439143016831e-05,0.000101463421728766,0.000245842729112924
1.98510827867853e-05,8.54560970126648e-06,1.74687131322747e-05,4.58654056203265e-05
4.21861603956119e-05,0.000130344169465152,0.000179591125941397,0.000352121455802161
1.48206555488705e-05,1.09194448878441e-05,2.16905413194512e-05,4.74306417561658e-05
1.0247307032926e-05,7.53088214738743e-06,1.71960100433772e-05,3.49741992236906e-05
8.00593842164398e-06,5.90788804667434e-06,1.51001338318588e-05,2.90139603001772e-05
6.2102072377323e-06,4.1636711531991e-06,1.30883674534936e-05,2.3462245844425e-05
2.01496064218114e-05,1.14609614925569e-05,2.19502701363272e-05,5.35608380506954e-05
7.18603570921578e-06,5.64069340688022e-06,1.36994490532269e-05,2.65261781693229e-05
1.09808536081654e-05,8.2792441222327e-06,1.59078163839195e-05,3.51679141143176e-05
4.83198409871004e-06,3.60835323084431e-06,1.1337216756682e-05,1.97775540862364e-05
4.43145955204813e-06,3.73856812300037e-06,1.03950957272012e-05,1.85651234022497e-05
5.53171269647654e-06,5.41924092000732e-06,1.17046244051348e-05,2.26555780216187e-05
4.11768741004587e-06,3.35633186782186e-06,1.0169470787649e-05,1.76434900655167e-05
4.07756479672838e-06,3.39385398902095e-06,1.03348096835546e-05,1.78062284693039e-05
4.08722140486203e-06,3.29715662966286e-06,1.0020973254497e-05,1.74053512890219e-05
7.82688370566077e-06,7.74812622541479e-06,1.83161010030224e-05,3.38911109340979e-05
4.35398551316182e-06,3.35756560799954e-06,1.03764350092958e-05,1.80879861304572e-05
9.30453091282987e-06,7.9099585418614e-06,1.63918018314737e-05,3.3606291286165e-05
2.76102054533023e-05,5.06077064924219e-05,0.000119674763766329,0.000197892675712054
1.90123137260325e-05,1.09740364278535e-05,2.16893006215511e-05,5.1675650775437e-05
1.71855113605139e-05,1.10734627461398e-05,2.34801152875734e-05,5.17390893942271e-05
2.28601535018507e-05,1.61780518595203e-05,2.09632269784394e-05,6.00014323398103e-05
8.76324326416141e-06,5.53416565317873e-06,1.30164067580237e-05,2.73138156753639e-05
7.51612018040289e-06,8.94949474204701e-06,1.5640715987356e-05,3.21063309098059e-05
5.3253676481032e-06,5.4722063258958e-06,1.44504195033119e-05,2.52479934773109e-05
1.56410488960221e-05,1.54751744754797e-05,2.68171931037894e-05,5.79334164752911e-05
1.07969738757647e-05,9.30189760383746e-06,1.9064623124244e-05,3.91634946038461e-05
1.3800606609697e-05,1.46204237063233e-05,4.25724699005022e-05,7.09935002165225e-05
1.57075917266816e-05,1.39626079384043e-05,2.56397142083915e-05,5.53099138734775e-05
8.58007763447858e-06,7.23079541747671e-06,1.47963512492099e-05,3.06072243011651e-05
7.15709644083297e-06,6.43789701243374e-06,1.26791007314394e-05,2.62740941847061e-05
8.50642333993637e-06,8.74535375001383e-06,1.62149070551899e-05,3.34666841451401e-05
4.57057921029473e-06,4.22372603153993e-06,1.02356443666527e-05,1.90299496084874e-05
1.25404229066304e-05,1.05895955320062e-05,1.51488692921255e-05,3.82788877307622e-05
7.88335921804837e-06,7.60399903283561e-06,1.4845226644324e-05,3.0332584895208e-05
5.54330831555824e-06,4.94407421036185e-06,1.05574687167733e-05,2.10448512426934e-05
1.08931812647035e-05,6.99042557407039e-06,1.53801339964659e-05,3.32637408352399e-05
8.98319588602476e-06,8.04367465627101e-06,1.56657493094865e-05,3.26926198517823e-05
8.33111958102941e-06,7.52330811301497e-06,1.76221017337864e-05,3.34765294278308e-05
6.61534094635428e-06,6.25404715736321e-06,1.45458291205107e-05,2.74152172242282e-05
1.08778551323827e-05,6.02114694557197e-06,1.36221403104652e-05,3.05211423884198e-05
7.10572926198556e-06,4.87676144746395e-06,1.12229676698115e-05,2.3205458379261e-05
1.3524813847057e-05,1.01349373274277e-05,1.84484176430059e-05,4.21081688174906e-05
1.02034635831184e-05,9.55433915416664e-06,1.85363870686629e-05,3.8294189805948e-05
3.29323181774794e-05,2.93281425384543e-05,5.97783378983616e-05,0.000122038798614295
6.86188811175717e-06,5.61230812122881e-06,1.15497151136946e-05,2.40239113466806e-05
1.47544884534552e-05,1.01324339619622e-05,1.90056068857029e-05,4.38925293011203e-05
1.10290689801701e-05,7.11286797594829e-06,1.56128543992281e-05,3.37547913553466e-05
4.82692691319032e-06,4.72675653735482e-06,9.44480691794457e-06,1.89984903684897e-05
6.03862256355075e-06,4.93319294317099e-06,1.11901582507809e-05,2.21619737575026e-05
6.81757686216555e-06,5.41941133936696e-06,1.24999710351198e-05,2.47369592366523e-05
1.14310975278257e-05,1.18354724779208e-05,1.78585752346025e-05,4.1125145240349e-05
1.03705553825027e-05,1.2410933759335e-05,1.87569253077651e-05,4.15384144496028e-05
1.29802479112701e-05,1.65348063716696e-05,2.63305298333157e-05,5.58455841162554e-05
1.65293682457575e-05,1.5661525295821e-05,2.03334393592541e-05,5.25243329008326e-05
3.98649782693738e-05,2.75101082273415e-05,5.38815579062622e-05,0.000121256644402977
0.000223575685046121,0.0006663193260287,0.00030261664437523,0.00119251165545005
9.74710635019167e-05,5.67786345175219e-05,7.11391079025461e-05,0.000225388805921985
0.000116556635164553,0.000266950138024989,0.00025937981323523,0.000642886586424771
3.83360181500002e-05,7.30687986435895e-05,6.21571172207658e-05,0.000173561934014356
1.81425716922079e-05,1.61794928922214e-05,3.27785246780465e-05,6.71005892624758e-05
0.000109754941282073,0.000120371671108269,0.000149639487084882,0.000379766099475224
8.32571642571216e-05,0.000122636883728082,8.03822134162855e-05,0.000286276261401489
7.87439210731151e-05,8.43910255837401e-05,0.000114612089121264,0.000277747035778119
9.91616222750815e-05,0.00012437602909305,6.22959135827285e-05,0.00028583356495086
0.000139724744345428,0.000287620721261042,0.00017561292723593,0.000602958392842399
6.16475396111144e-06,5.26521955122798e-06,1.54284072576337e-05,2.68583807699731e-05
6.96046479778942e-06,5.89075030353725e-06,1.25342468445439e-05,2.53854619458705e-05
2.84685467727039e-05,0.000118749680271374,0.000153667874641944,0.000300886101686022
1.89878090842252e-05,1.68903639165013e-05,3.00633189431469e-05,6.59414919438734e-05
3.48863659081951e-05,2.56456797040611e-05,6.81724210687659e-05,0.000128704466681022
0.000129437963665395,0.000166190623290735,0.000160987261429152,0.000456615848385282
2.73823410488467e-05,2.26944731489847e-05,2.88504614414562e-05,7.89272756392876e-05
2.88615775324048e-05,3.98312483747757e-05,7.47438293437472e-05,0.000143436655250928
0.00053430120209385,0.00197245005453923,0.0017958748918551,0.00430262614848819
0.000901124466966793,0.00291307471664786,0.00242675359891807,0.00624095278253272
0.000232728069861858,0.00112229106342173,0.000719550702546318,0.00207456983582991
3.3218470490281e-05,5.54801138404952e-05,7.57756313329105e-05,0.000164474215663687
8.04134304613661e-05,0.000248079558620701,0.000207130236419311,0.000535623225501378
8.01670615310819e-05,0.000124143450191161,0.000115424805967563,0.000319735317689806
2.92053031763841e-05,3.39533858643618e-05,5.54223525619524e-05,0.000118581041602698
8.79213940028606e-05,0.000146458955033125,0.000143883077252876,0.000378263426288862
4.72158212880351e-05,2.62184245968338e-05,3.93369329972591e-05,0.000112771178882128
0.000217461108549936,0.000396307450506418,0.000302402812813312,0.000916171371869666
0.0300814496679759,0.00271153049409035,0.0060952155855149,0.0388881957475811
0.0003088429794786,0.000206090207355441,0.000185181636250431,0.000700114823084472
0.000223186796529434,0.000175049905986356,0.0001774864040548,0.000575723106570589
0.000248025506923907,0.000469067849268466,0.000485934965387637,0.00120302832158001
9.18949030483903e-05,6.20503059716621e-05,6.06801501629842e-05,0.000214625359183037
2.72753789581629e-05,2.42859940721746e-05,2.65067770126621e-05,7.80681500429996e-05
4.12048078204156e-05,5.23216143696662e-05,9.07970596410127e-05,0.000184323481831095
0.000128387088760219,8.20700896896752e-05,9.39622240909096e-05,0.000304419402540803
6.81167576459386e-05,0.000102091072185619,7.67132627733581e-05,0.000246921092604916
0.000401403969324441,0.00171972242879979,0.00145331472054103,0.00357444111866526
0.000308651327673059,0.00118467794423438,0.000890210300326552,0.00238353957223399
0.000199237748372758,0.0008820312497052,0.000414471160665537,0.0014957401587435
0.000207725722157382,0.000227462998876746,0.000221099090910549,0.000656287811944677
9.64576479873621e-05,0.000138428008654828,0.000166101867235415,0.000400987523877605
7.74100053997082e-05,0.000111556112857851,0.000100337571018259,0.000289303689275818
5.21839667441271e-05,4.91541619378758e-05,4.95632153204684e-05,0.000150901344002471
0.000152199923982632,0.000231315410447866,0.000203522747053916,0.000587038081484414
6.08812587651053e-05,0.000103056804710407,7.52043441869455e-05,0.000239142407662458
3.94952315926095e-05,4.75795351095377e-05,4.42899403347051e-05,0.000131364707036852
0.000232194069800504,0.000689852483115739,0.000546578881279885,0.00146862543419613
0.000294565337282168,0.000409129737277447,0.000628850040437739,0.00133254511499735
4.96064905025425e-05,3.26017709805817e-05,5.8688242980439e-05,0.000140896504463563
8.1992926756668e-05,3.52301401538618e-05,9.2361548597427e-05,0.000209584615507957
8.48354318063155e-05,4.50989419685317e-05,5.88115062744873e-05,0.000188745880049334
1.26249556058586e-05,1.02584576746319e-05,1.68266703651886e-05,3.9710083645679e-05
7.50672779708406e-05,3.8449585317351e-05,0.00010855351190992,0.000222070375198111
5.3869186756257e-05,0.000241111038073593,8.79549506662332e-05,0.000382935175496084
0.000142380063994719,0.000110887310359847,9.71996213307028e-05,0.000350466995685269
0.000140326124266193,0.000105733452350442,0.000153231731042561,0.000399291307659196
0.000156471298388547,0.00016350075000553,0.000114718278811942,0.000434690327206019
0.000337802624011862,0.000606959626586745,0.000428211730229063,0.00137297398082767
0.000294118894147974,0.000481338528652934,0.000317670024199412,0.00109312744700032
0.00106709832963215,0.00525506684314423,0.00138321366926385,0.00770537884204023
0.00109155709534597,0.00335204908039111,0.00243457257941798,0.00687817875515506
0.00177654247724114,0.00498174938787124,0.0034127817079821,0.0101710735730945
0.00107458402166922,0.00325320693441926,0.00293458566734423,0.00726237662343271
0.00142105575931226,0.00364498547442977,0.00290674324346114,0.00797278447720317
0.00100676246976052,0.00253404971352352,0.0017304703248487,0.00527128250813273
0.00030387606877074,0.000202379102186976,0.000253085812194746,0.000759340983152462
0.000486425502830198,0.000613446594813409,0.000714184379710078,0.00181405647735368
7.10073372204768e-05,4.59181196256234e-05,0.000115771394778078,0.000232696851624178
8.94264471904168e-05,8.255531011495e-05,0.000136283139045991,0.000308264896351358
5.11584448632802e-05,7.43494755720391e-05,9.29819603478563e-05,0.000218489880783176
5.81932398977621e-05,0.000120496300805932,0.000143172599468784,0.000321862140172477
5.80798853057599e-05,0.000133104201262611,0.000161182515336586,0.000352366601904957
8.76007262557202e-05,0.000228874658481478,0.000249368407997147,0.000565843792734345
5.87827907274573e-05,0.000105408082009474,0.000141148118348923,0.000305338991085855
6.72038136568365e-05,0.00025542877153777,0.000215286690027758,0.000537919275222364
7.5595765800601e-05,0.000287410963785988,0.000307099512285734,0.000670106241872323
5.15835579121009e-05,0.000137037131683344,0.000119039484091237,0.000307660173686681
0.000163805408690849,0.000120418169054366,6.1747919868957e-05,0.000345971497614173
5.83593891618701e-05,5.50635564964032e-05,9.10182691163217e-05,0.000204441214774595
4.35585151242321e-05,6.17876135838881e-05,9.00643373741554e-05,0.000195410466082276
2.37509302977783e-05,5.15982541528949e-05,6.78663945579977e-05,0.000143215579008671
3.88724726998759e-05,0.000140126370470544,0.000150745028198318,0.000329743871368737
2.97619142360922e-05,7.90249294910614e-05,8.13211713016305e-05,0.000190108015028784
1.9212983999811e-05,2.35803655383172e-05,4.22880973936334e-05,8.50814469317616e-05
4.13114557487592e-05,3.69046937459469e-05,4.37496707948779e-05,0.000121965820289584
1.55507812566191e-05,1.88786624084314e-05,3.51870758853133e-05,6.96165195503639e-05
2.70828305576048e-05,6.99097696525104e-05,9.51287388571514e-05,0.000192121339067267
1.70668668760834e-05,4.97767384457438e-05,7.29143159295317e-05,0.000139757921251359
3.17328945064179e-05,6.83348506283553e-05,8.75097652249728e-05,0.000187577510359746
8.55507392344811e-05,0.00016609121520738,0.000158947230116301,0.000410589184558163
7.68895368670765e-05,0.000128826540175708,0.000121992346976117,0.000327708424018902
7.31205526075331e-05,0.000223964534833832,0.000191393145564826,0.000488478233006191
7.2471958071323e-05,0.000289041586023552,0.000305827213922652,0.000667340758017527
0.000105536447608989,0.000327554455844343,0.000323261246464087,0.000756352149917419
0.000139031367043757,0.000455284401594696,0.000294614551200497,0.00088893031983895
0.000184605356362413,0.000276257213856285,0.000219337056397347,0.000680199626616045
0.00012193684779165,0.000200852100997729,0.000168510827195472,0.000491299775984851
6.73426859680772e-05,0.00017077181609852,0.000138045310908536,0.000376159812975133
6.01026878004799e-05,0.000153665334602462,0.000136786098883978,0.00035055412128692
6.05085309164801e-05,0.000193738797359935,0.000215234546217405,0.00046948187449382
6.27574647377589e-05,0.000214416577610256,0.000198254023221603,0.000475428065569617
0.000101499859654295,0.000234788895774481,0.000276594712784043,0.000612883468212819
0.000115495688896654,0.000324136961553504,0.000394231297831715,0.000833863948281872
8.56343790744083e-05,0.000235375647952458,0.000224462542048894,0.000545472569075761
0.000117559367574488,0.000408665098666363,0.000267993074583922,0.000794217540824773
7.73421447246754e-05,0.000272732128865645,0.000175979092009207,0.000526053365599527
8.49373386452679e-05,0.000313617766988096,0.000176795718728429,0.000575350824361792
5.82056054536853e-05,0.000267307462174586,0.000187312794150587,0.000512825861778859
0.000170695000083874,0.000612638471956637,0.000433221535644068,0.00121655500768458
0.000119194116096104,0.0004158069450664,0.000265458208859852,0.000800459270022356
0.000158355821803578,0.000488474276520347,0.000274600914329672,0.000921431012653597
9.67927059834521e-05,0.000601474077595073,0.00014744418503093,0.000845710968609455
5.93112298006117e-05,0.000206380635132148,0.000139873015729301,0.000405564880662061
5.45950060386259e-05,0.000264873007050433,0.000152537971745302,0.000472005984834361
4.16454479653992e-05,0.000195502206479606,0.000143991365629194,0.0003811390200742
4.07545382565393e-05,0.000150534977949725,0.00012506858964726,0.000316358105853524
4.04724543453608e-05,7.57820738133446e-05,0.00012233466880955,0.000238589196968256
3.45009138852938e-05,9.59956747866118e-05,9.27386877717889e-05,0.000223235276443695
4.17894818134788e-05,9.63542951144545e-05,8.22108687740978e-05,0.000220354645702031
2.91344915708795e-05,4.6483128633358e-05,4.24788298703347e-05,0.000118096450074572
3.08886611977528e-05,4.51548563309833e-05,5.12315011460496e-05,0.000127275018674786
3.42903860255316e-05,6.31697170201325e-05,6.48088267258505e-05,0.000162268929771515
4.73336973716288e-05,0.000131593357770792,9.15369710880854e-05,0.000270464026230506
2.49618341469546e-05,8.73511761015381e-05,5.46056850607494e-05,0.000166918695309242
3.49468920806548e-05,0.000128567106044202,7.57530415779951e-05,0.000239267039702852
3.00600384004641e-05,8.04903313780612e-05,7.27823575286713e-05,0.000183332727307197
2.94086428589151e-05,6.71458990565079e-05,5.81007486917285e-05,0.000154655290607151
3.17888582228678e-05,0.000103356335032459,6.57873853674336e-05,0.000200932578622761
3.16371475654315e-05,0.000134309188906247,6.98109955889393e-05,0.000235757332060618
4.69554148079769e-05,0.000173227109106846,0.00010224897699383,0.000322431500908652
4.25343985103106e-05,8.85928502632484e-05,6.53274326085041e-05,0.000196454681382063
5.64653731191454e-05,9.85573834618134e-05,0.000110673011851671,0.00026569576843263
4.4557325050025e-05,0.000116681423830496,5.32254389151855e-05,0.000214464187795706
4.3117413452742e-05,7.37297894547837e-05,6.09526961809352e-05,0.000177799899088461
3.00631757532179e-05,5.43780864399262e-05,3.60222209317821e-05,0.000120463483124926
3.02305794461468e-05,0.000117773971490107,6.90628709716346e-05,0.000217067421907888
4.80031832515839e-05,0.000271649855454874,0.000125295438289195,0.000444948476995653
5.05429582337387e-05,0.000161877364624818,9.28831033779378e-05,0.000305303426236494
5.08009759081358e-05,8.70496101573064e-05,5.48485162174345e-05,0.000192699102282877
5.12711138037107e-05,9.50834441830962e-05,8.10921179634797e-05,0.000227446675950287
3.99960079974429e-05,4.40654628764203e-05,4.54316956815455e-05,0.000129493166555409
5.07532513254107e-05,0.000117181645853258,9.33973963065229e-05,0.000261332293485191
4.03633531578998e-05,9.89954820161806e-05,9.18986537114865e-05,0.000231257488885567
4.20554320193148e-05,7.85777272027728e-05,7.34972376577606e-05,0.000194130396879848
5.41191295537843e-05,9.95196578734119e-05,9.53391213799227e-05,0.000248977908807119
3.88503285838145e-05,6.86393218088199e-05,5.60576644266002e-05,0.000163547314819235
4.60801317198017e-05,9.46602105860005e-05,7.6447786378148e-05,0.00021718812868395
3.59544659704642e-05,8.55560286032222e-05,7.323049213756e-05,0.000194740986711247
4.45067604776254e-05,0.000117235785196423,7.60389367157003e-05,0.000237781482389749
4.77976213888735e-05,0.000141697750321956,0.000110067434267566,0.000299562805978396
3.73023650557787e-05,6.69186987842714e-05,6.70554474709189e-05,0.000171276511310969
3.15778268713496e-05,7.16336568755236e-05,6.0978765931125e-05,0.000164190249677998
3.26843175556747e-05,7.97621571532823e-05,7.60581187910289e-05,0.000188504593499986
3.08389767176859e-05,5.40836779432354e-05,5.17673630801965e-05,0.000136690017741118
3.6785755150021e-05,6.02403303583367e-05,6.20223040598038e-05,0.000159048389568161
4.01395821741118e-05,5.57327974134019e-05,6.9875429407575e-05,0.000165747808995089
3.35078156465114e-05,0.000117709111983216,8.34486362491004e-05,0.000234665563878828
2.75088068335481e-05,7.30817631349294e-05,5.76931501187402e-05,0.000158283720087218
2.13512975107231e-05,4.34501640138558e-05,5.64025556138577e-05,0.000121204017138437
3.22217921468973e-05,8.15446005134137e-05,5.69259866519406e-05,0.000170692379312252
2.25349977009371e-05,5.10442112149531e-05,4.51787634832643e-05,0.000118757972399155
2.58987587461101e-05,8.04288231797237e-05,5.75305564953802e-05,0.000163858138421214
2.53613446333089e-05,9.49312357429617e-05,6.68026700419029e-05,0.000187095250418174
4.3473240396334e-05,7.61495498561669e-05,7.69796228713219e-05,0.000196602413123823
3.03640357380726e-05,7.08806890750845e-05,4.97381678269253e-05,0.000150982892640082
3.15331703732673e-05,0.000127927286776514,8.47023598504419e-05,0.000244162817000223
3.56966928939001e-05,9.71644268371379e-05,7.86073523883922e-05,0.00021146847211943
3.27211861681491e-05,0.00013942538441862,8.42179239998471e-05,0.000256364494586616
3.65832278288541e-05,0.000122943757295699,8.81703619930922e-05,0.000247697347117646
2.91401183186902e-05,6.64273140110111e-05,4.89651496219416e-05,0.000144532581951643
5.45359708371208e-05,0.000205344895433262,0.000130382050475362,0.000390262916745745
3.53980806664054e-05,7.03677789233422e-05,7.5658576249204e-05,0.000181424435838952
3.15870075237706e-05,0.000100756464356119,7.67199190742342e-05,0.000209063390954124
3.64137704745983e-05,0.000113932267837112,7.35781578400369e-05,0.000223924196151747
3.09891144719285e-05,6.03791292634398e-05,5.51392122839556e-05,0.000146507456019324
3.95513758789692e-05,9.74467766587701e-05,6.90006739602241e-05,0.000205998826497963
4.1741492048946e-05,0.000147073634905233,8.70761152071642e-05,0.000275891242161343
2.939409008792e-05,9.26901372005865e-05,7.08462486026825e-05,0.000192930475891189
3.22191517222923e-05,7.24948937948991e-05,5.71959568829604e-05,0.000161910002400152
3.9225211447529e-05,0.000133887894237847,7.83089010715302e-05,0.000251422006756906
3.1997769606995e-05,0.000128570307893656,9.53625824498545e-05,0.000255930659950505
2.97707795048125e-05,0.000105144075648496,7.54224687927634e-05,0.000210337323946072
3.26597390952151e-05,0.000148167094137757,0.000109689721700054,0.000290516554933026
3.02381547680109e-05,0.000127818074069821,0.000100624392862864,0.000258680621700695
4.52807834938743e-05,0.000262833129691118,0.000165375872616421,0.000473489785801414
5.28767023187405e-05,0.000373337060533442,0.000268646176466002,0.000694859939318185
3.5279324105159e-05,0.000150116026916047,0.000104588990802799,0.000289984341824005
3.81713026803704e-05,0.000123974963724539,9.00894743254581e-05,0.000252235740730368
3.96498960868924e-05,0.00013510174776915,9.87126176254678e-05,0.00027346426148151
4.19005319827502e-05,0.00011833059686533,9.49559114681226e-05,0.000255187040316202
4.12245144405577e-05,0.000193054976549347,0.000182340750509254,0.000416620241499159
2.74336591132223e-05,0.000120618728578353,0.000120091884527403,0.000268144272218978
4.26500262585137e-05,0.000163728985947364,0.000113412818185894,0.000319791830391772
4.17918365300704e-05,0.000155604158276362,0.00016902647521231,0.000366422470018743
3.18385686515415e-05,0.000136633999293395,0.000110185117127617,0.000278657685072553
2.42964163782476e-05,7.59112646247961e-05,7.50664371766055e-05,0.000175274118179649
3.93610773973858e-05,0.000163619876956852,0.0001533564712188,0.000356337425573037
5.86201614276805e-05,0.000252754954995004,0.000165021096074289,0.000476396212496973
5.69147446137056e-05,0.000256962763741423,0.000174284589646814,0.000488162098001943
5.06394352185049e-05,0.000249577986180745,0.000171344467505013,0.000471561888904263
8.26177323547003e-05,0.000284314526159833,0.000192588583455555,0.000559520841970088
7.92454050959438e-05,0.000388156551578812,0.000217359882687877,0.000684761839362633
4.08854448035038e-05,0.000125172811992839,8.3821291389393e-05,0.000249879548185736
4.30452583224447e-05,0.000191674116697109,0.000112061193838475,0.000346780568858029
4.32971106887379e-05,0.00015485273458815,0.000116683491839756,0.000314833337116645
0.000130373273860592,0.000523186036117564,0.000518091880091991,0.00117165119007015
6.25906139531646e-05,0.000327654844203555,0.000335122475320265,0.000725367933476985
3.75271462577095e-05,0.000103122050013698,8.97929549393766e-05,0.000230442151210784
5.03944612713547e-05,7.77804847694621e-05,7.09768997117948e-05,0.000199151845752612
2.11619869825505e-05,5.19000839140278e-05,6.01292896583986e-05,0.000133191360554977
1.47758668537462e-05,3.40677092582993e-05,4.71817925999884e-05,9.60253687120339e-05
1.56560744585199e-05,2.62177345956789e-05,3.40483518694573e-05,7.59221609236561e-05
2.17629570332664e-05,2.55373836790444e-05,4.89381515039307e-05,9.62384922162415e-05
2.21377074085756e-05,1.15607233379156e-05,3.54474191567784e-05,6.91458499032696e-05
1.06263176814288e-05,8.82743176753058e-06,2.10024163201889e-05,4.04561657691482e-05
1.01055499966024e-05,6.2098907522839e-06,2.00984871849516e-05,3.64139279338379e-05
2.05722425503249e-05,1.86227956732907e-05,3.23685763307907e-05,7.15636145544063e-05
1.1845156178824e-05,1.77837647035968e-05,3.11700438866667e-05,6.07989647690876e-05
1.50462225578904e-05,1.05287006038741e-05,3.070458477644e-05,5.62795079382045e-05
2.8602203525298e-05,2.16579373734241e-05,3.82209327372095e-05,8.84810736359317e-05
6.40869471343891e-06,6.70307585249325e-06,1.25897026160142e-05,2.57014731819463e-05
6.50859941145692e-05,7.74387690661099e-05,7.41974809778245e-05,0.000216722244158504
0.000164798595594669,0.000107313181508445,9.04988095480673e-05,0.000362610586651182
7.01215728117063e-05,2.74630547077745e-05,5.5563358781819e-05,0.0001531479863013
7.50512922256683e-05,3.6203503597953e-05,4.8174373090462e-05,0.000159429168914083
4.12896765347335e-06,3.80930231834011e-06,9.32183904201987e-06,1.72601090138333e-05
2.09058918926432e-05,1.87561477627717e-05,2.90980315297622e-05,6.8760071185177e-05
0.000277727917143871,0.000249809877616564,0.000181804243725261,0.000709342038485696
0.000450031574091699,0.000457155911150412,0.000355944953278438,0.00126313243852055
8.25015987612223e-06,5.86388623426053e-06,1.1742875435966e-05,2.58569215463488e-05
2.97805824253556e-06,2.7906819393951e-06,8.55177784721512e-06,1.43205180291458e-05
2.88095605315124e-06,2.6842158235543e-06,8.36145906312861e-06,1.39266309398341e-05
2.85681788687673e-06,2.71093101294585e-06,8.34251456039863e-06,1.39102634602212e-05
2.89066632523398e-06,2.7368065692359e-06,8.09628483065557e-06,1.37237577251255e-05
2.83217504707528e-06,2.71179961758269e-06,7.74349906867541e-06,1.32874737333334e-05
2.77792549599147e-06,2.68775676386294e-06,8.05094333706645e-06,1.35166255969209e-05
2.86532395140554e-06,2.60219728702002e-06,7.73117314918644e-06,1.3198694387612e-05
2.72650463875473e-06,2.66417504700951e-06,7.6828893951956e-06,1.30735690809598e-05
2.72733949583358e-06,2.52314526979495e-06,7.27983352766171e-06,1.25303182932902e-05
2.88958228904368e-06,2.595633850855e-06,7.61948395099645e-06,1.31047000908951e-05
2.85280982910555e-06,2.49349233151922e-06,7.60397413784286e-06,1.29502762984676e-05
2.84664571772516e-06,2.64160757484006e-06,7.61926320050002e-06,1.31075164930652e-05
2.83015134408285e-06,2.64700825281464e-06,7.44578153434632e-06,1.29229411312438e-05
2.83756138490344e-06,2.74356762892583e-06,7.97254379003079e-06,1.35536728038601e-05
2.80653382734012e-06,2.70942391823491e-06,7.69812433378313e-06,1.32140820793582e-05
2.7754878972157e-06,2.67799522426564e-06,7.8207962903003e-06,1.32742794117816e-05
2.72900554502343e-06,2.59280608922528e-06,7.70001190921083e-06,1.30218235434595e-05
3.42983672596103e-06,2.95858039174237e-06,7.50190719832799e-06,1.38903243160314e-05
2.78295501718507e-06,2.56322183402251e-06,7.64481574351705e-06,1.29909925947246e-05
2.74081462294749e-06,2.60185640187894e-06,7.37913885614005e-06,1.27218098809665e-05
2.79114608516798e-06,2.66102746900996e-06,7.6199442358781e-06,1.3072117790056e-05
2.84303637058812e-06,2.58387558664263e-06,7.66456605834031e-06,1.30914780155711e-05
2.76731577457491e-06,2.55016155471959e-06,7.56683085813245e-06,1.2884308187427e-05
2.80129320777489e-06,2.68846378938977e-06,7.81149944928529e-06,1.330125644645e-05
2.85957123674799e-06,2.67204202434423e-06,7.89470738078593e-06,1.34263206418781e-05
2.82110259717389e-06,2.69263861207873e-06,7.49117129390609e-06,1.30049125031587e-05
2.74113001641324e-06,2.64212180544666e-06,7.62243039585807e-06,1.3005682217718e-05
2.86909653117578e-06,2.68589537608928e-06,7.39106116620995e-06,1.2946053073475e-05
2.92800746647708e-06,2.80368267192338e-06,7.97203349156436e-06,1.37037236299648e-05
2.86608717641668e-06,2.76535416548516e-06,7.6781849711007e-06,1.33096263130025e-05
2.94507947570993e-06,2.83659530349299e-06,7.81150360732994e-06,1.35931783865329e-05
2.91790760290752e-06,2.69050701650921e-06,7.72547064655312e-06,1.33338852659699e-05
2.94214687678932e-06,2.74317683639702e-06,7.69955468084954e-06,1.33848783940359e-05
2.83321485539858e-06,2.68371034033229e-06,7.83281390138516e-06,1.3349739097116e-05
2.79563336768788e-06,2.73784737033213e-06,7.4670406678118e-06,1.30005214058318e-05
2.95017198821763e-06,2.7564759568907e-06,7.83700604149487e-06,1.35436539866032e-05
2.88788694183803e-06,2.76360836438595e-06,7.53173885380711e-06,1.31832341600311e-05
2.88957630766188e-06,2.73844413522895e-06,7.80116413476768e-06,1.34291845776585e-05
2.83941890658635e-06,2.71762104918665e-06,7.52823000766807e-06,1.30852699634411e-05
2.88233095692509e-06,2.61689612201057e-06,7.66761163570788e-06,1.31668387146435e-05
2.84913234859638e-06,2.60753872241375e-06,7.65314686841886e-06,1.3109817939429e-05
2.81647825400276e-06,2.66153719424923e-06,7.49181799318248e-06,1.29698334414345e-05
2.78357727935473e-06,2.63755426945223e-06,7.04556951206476e-06,1.24667010608717e-05
2.78537528900111e-06,2.60282980747571e-06,7.35525609907005e-06,1.27434611955469e-05
2.72337532888616e-06,2.6408860232119e-06,7.38261889850687e-06,1.27468802506049e-05
2.92780703245321e-06,2.62526015547989e-06,7.72722419061293e-06,1.3280291378546e-05
3.00992047455105e-06,2.75406759014671e-06,7.62840612522758e-06,1.33923941899253e-05
2.76701185505088e-06,2.72442358425692e-06,7.35631269185306e-06,1.28477481311609e-05
2.83220235116139e-06,2.50608889211993e-06,7.07851888543467e-06,1.2416810128716e-05
2.76235850695477e-06,2.63113143931818e-06,7.15544347406695e-06,1.25489334203399e-05
2.89740423995595e-06,2.73759366580694e-06,8.01588707690849e-06,1.36508849826714e-05
2.85353323361941e-06,2.65490641506184e-06,7.72818006273849e-06,1.32366197114197e-05
2.83861645900072e-06,2.57273219276315e-06,7.17508223412267e-06,1.25864308858865e-05
5.27131143915886e-06,3.96744456633842e-06,8.33889865980684e-06,1.75776546653041e-05
2.87775662227744e-06,2.58289943145761e-06,7.74579322303143e-06,1.32064492767665e-05
2.9092790478978e-06,2.76462901246505e-06,7.70652534228632e-06,1.33804334026492e-05
2.8755521700884e-06,2.68896763184348e-06,7.59810858031515e-06,1.3162628382247e-05
2.79194921936897e-06,2.60553469047534e-06,7.44066641670045e-06,1.28381503265448e-05
2.851260721409e-06,2.67416752406765e-06,7.66557548405762e-06,1.31910037295343e-05
2.75304079501151e-06,2.67928439579891e-06,7.4579449560999e-06,1.28902701469103e-05
2.83561168056148e-06,2.64049772520445e-06,7.38062183586773e-06,1.28567312416337e-05
2.97205502872036e-06,2.67467152112492e-06,8.08522072885157e-06,1.37319472786969e-05
2.90868357394267e-06,2.62186384112274e-06,7.5635267373416e-06,1.3094074152407e-05
2.93300715929311e-06,2.71125271236305e-06,7.51284204832975e-06,1.31571019199859e-05
2.98900374267928e-06,2.60604256382318e-06,7.68360449830486e-06,1.32786508048073e-05
3.05802414493776e-06,2.79619614917759e-06,7.75513219425259e-06,1.36093524883679e-05
2.72964982377567e-06,2.62722886934462e-06,7.51060781338346e-06,1.28674865065038e-05
2.63269989120798e-06,2.56529559379804e-06,7.18963812590994e-06,1.2387633610916e-05
2.86698601046437e-06,2.6507207639693e-06,7.41795494793617e-06,1.29356617223698e-05
2.97729110782694e-06,2.65499868763115e-06,7.57357401100275e-06,1.32058638064608e-05
2.86765023320548e-06,2.62330838707115e-06,7.49555511993358e-06,1.29865137402102e-05
2.90447874876093e-06,2.63929731706901e-06,7.81387032286564e-06,1.33576463886956e-05
2.80604002648006e-06,2.67124053497628e-06,7.74265814271075e-06,1.32199387041671e-05
2.95738292083084e-06,2.66612337718272e-06,7.61311549639982e-06,1.32366217944134e-05
2.74563517856786e-06,2.52174020041552e-06,7.15405930088677e-06,1.24214346798701e-05
2.77850620956727e-06,2.65910620448081e-06,7.41469163181156e-06,1.28523040458596e-05
2.97942881297871e-06,2.61637120507142e-06,7.48636288992589e-06,1.3082162907976e-05
2.88793304457443e-06,2.72337845047409e-06,7.81421134227594e-06,1.34255228373245e-05
3.12238548133791e-06,2.78783786723937e-06,8.10543451758561e-06,1.40156578661629e-05
3.18818906390982e-06,2.87019461636311e-06,7.72939311192591e-06,1.37877767921988e-05
2.82431340363945e-06,2.67286240394424e-06,7.42092539423121e-06,1.29181012018149e-05
2.79399127078767e-06,2.61867502713227e-06,7.67641208336564e-06,1.30890783812856e-05
2.88722073411208e-06,2.67144081418435e-06,7.77261188618733e-06,1.33312734344838e-05
2.91785576522438e-06,2.55309427647784e-06,7.43831317946443e-06,1.29092632211667e-05
2.77330818845139e-06,2.63668450998148e-06,7.13053992112617e-06,1.2540532619559e-05
2.84934548291816e-06,2.56889630459746e-06,7.50329852103181e-06,1.29215403085474e-05
2.89131261773891e-06,2.65266430979343e-06,7.75562430997995e-06,1.32996012375123e-05
2.82657438945485e-06,2.68417651587008e-06,7.21284179738781e-06,1.27235927027127e-05
2.92157583815119e-06,2.68208093942067e-06,8.01761221073773e-06,1.36212689883096e-05
2.94702604552221e-06,2.6759913352602e-06,7.76894951267068e-06,1.33919668934531e-05
3.00796095275596e-06,2.65646973549603e-06,7.93816146183581e-06,1.36025921500878e-05
3.01493017177859e-06,2.62944170252143e-06,7.60555013544672e-06,1.32499220097467e-05
2.95081520814075e-06,2.65054002820255e-06,7.86102638649421e-06,1.34623816228375e-05
2.96707972517837e-06,2.76889123374529e-06,8.02874723758296e-06,1.37647181965066e-05
3.03358236266035e-06,2.76320257152199e-06,8.03126085550082e-06,1.38280457896832e-05
2.98640873963297e-06,2.67119183450015e-06,7.28560901027471e-06,1.29432095844078e-05
2.99847269187028e-06,2.78339574893912e-06,8.14133159491624e-06,1.39232000357256e-05
2.99926730657886e-06,2.71583121392898e-06,7.52097810457302e-06,1.32360766250809e-05
2.96366520806591e-06,2.75912926865547e-06,8.08027899430588e-06,1.38030734710273e-05
3.03597827131422e-06,2.78422010315403e-06,7.98240020988451e-06,1.38025985843528e-05
3.23016600585979e-06,2.72843253530715e-06,7.65734482190204e-06,1.3615943363069e-05
3.04817121294354e-06,2.77658256860346e-06,7.47418224075012e-06,1.32989360222971e-05
2.85466091481426e-06,2.69620431169742e-06,7.31002741595441e-06,1.28608926424661e-05
2.85360580127159e-06,2.72405005041183e-06,7.52489917080669e-06,1.31025550224901e-05
3.03045343633404e-06,2.74664161861059e-06,7.7225014991105e-06,1.34995965540551e-05
2.93006569158048e-06,2.66691767245743e-06,7.854300645437e-06,1.34512840094749e-05
2.9189823082152e-06,2.63384418153959e-06,7.28860986929614e-06,1.28414363590509e-05
2.93534126009226e-06,2.71166680520256e-06,7.48216798187297e-06,1.31291760471678e-05
2.92359715234812e-06,2.72770262214943e-06,7.65927067817498e-06,1.33105704526725e-05
2.98832371042761e-06,2.71585986501406e-06,7.67334619004265e-06,1.33775297654843e-05
2.96006638696275e-06,2.77600768676e-06,7.81807568226694e-06,1.35541497559897e-05
2.93192479984448e-06,2.73485752683778e-06,8.04720879344014e-06,1.37139911201224e-05
3.03101347897865e-06,2.64089867491259e-06,7.92875284737051e-06,1.36006650012617e-05
3.04406015196756e-06,2.72687307746199e-06,7.70662095357459e-06,1.34775541830041e-05
3.03737940307686e-06,2.83441334967591e-06,7.5439868233922e-06,1.3415779576145e-05
2.9770723531388e-06,2.63387471245091e-06,7.47272583001025e-06,1.30836728956e-05
2.85533857782559e-06,2.62238285331793e-06,7.32457340861594e-06,1.28022948397595e-05
2.96715447941338e-06,2.61379374864535e-06,7.03262957852371e-06,1.26135778065824e-05
2.88646093970953e-06,2.69896818926917e-06,6.9812086894329e-06,1.25666378184116e-05
3.02758125964413e-06,2.69900244244238e-06,7.39988687912209e-06,1.31264705812086e-05
3.0124218024805e-06,2.72136858137775e-06,7.07563331895227e-06,1.28094237028105e-05
2.9167635700811e-06,2.72500036188701e-06,7.62194310794243e-06,1.32637070399105e-05
2.99808474793349e-06,2.6621572002781e-06,7.26100626765048e-06,1.29212482158621e-05
2.91840569246701e-06,2.63362002215028e-06,7.57896228194029e-06,1.31309879965576e-05
2.85611086910916e-06,2.59881438498182e-06,6.932186786774e-06,1.2387112040865e-05
2.65140177008068e-06,2.60821707392363e-06,6.91007292195955e-06,1.21696917659639e-05
2.85451642737062e-06,2.59614216868981e-06,7.06252448930908e-06,1.25131830853695e-05
2.9054089243206e-06,2.63690415211609e-06,7.22376969036637e-06,1.27660827668031e-05
2.76077200471852e-06,2.57501382477065e-06,6.58947576326112e-06,1.19252615927503e-05
2.73245436365631e-06,2.65741267905959e-06,6.68453973362043e-06,1.20744067763363e-05
2.80024699629785e-06,2.60639145029177e-06,6.80819960438351e-06,1.22148380509731e-05
2.91785877696531e-06,2.92254519748058e-06,6.8763832936275e-06,1.27167872680734e-05
2.77968839141164e-06,2.80611633925196e-06,6.86412704738649e-06,1.24499317780501e-05
2.7765509470091e-06,2.60291397513803e-06,6.80976536576386e-06,1.2189230287911e-05
2.68782541426354e-06,2.62289047327371e-06,6.81437379740757e-06,1.21250896849448e-05
2.81605110203446e-06,2.66444963892766e-06,6.99609382840316e-06,1.24765945693653e-05
2.97947221701718e-06,2.73772266521743e-06,7.39193422578757e-06,1.31091291080222e-05
2.84959073363072e-06,2.73386701430328e-06,7.11520155183072e-06,1.26986592997647e-05
2.7452832283478e-06,2.48988233076204e-06,6.56640920515494e-06,1.18015747642648e-05
2.74039491306314e-06,2.62902713993195e-06,6.69372816646511e-06,1.20631502194602e-05
2.92288699023471e-06,2.57961075897765e-06,6.81500008435076e-06,1.23174978335631e-05
2.86952947870789e-06,2.85992292539112e-06,7.02080332094147e-06,1.27502557250405e-05
2.77610647803019e-06,2.57218711450118e-06,6.86490806978933e-06,1.22132016623207e-05
2.63587478515097e-06,2.51695696335007e-06,6.09844910607902e-06,1.12512808545801e-05
2.72828814188378e-06,2.57515158314207e-06,6.38466249959735e-06,1.16881022246232e-05
2.82106867497953e-06,2.56529006499769e-06,6.81990308868203e-06,1.22062618286592e-05
2.68866888849822e-06,2.68956705784144e-06,6.94889142393642e-06,1.23271273702761e-05
2.93832091280773e-06,2.73793298947163e-06,7.06918207471472e-06,1.27454359769941e-05
2.89251880806721e-06,2.75836874585158e-06,6.91325087211717e-06,1.2564138426036e-05
2.89051147107749e-06,2.75589501257296e-06,7.10779592527399e-06,1.27542024089245e-05
2.84173421580802e-06,2.7348928720786e-06,7.53588280228154e-06,1.31125098901682e-05
2.87698878082649e-06,2.80656263355393e-06,7.20540549865447e-06,1.28889569130349e-05
2.8699253363162e-06,2.62690669832878e-06,6.91227791518511e-06,1.24091099498301e-05
2.80800468872872e-06,2.61491562507862e-06,6.41181499293886e-06,1.18347353067462e-05
2.72072042086551e-06,2.7054516868328e-06,6.63276620473409e-06,1.20589383124324e-05
2.85430744374441e-06,2.80095610319435e-06,7.11598014191453e-06,1.27712436888533e-05
2.99976695924382e-06,2.89323028138346e-06,7.28696984860624e-06,1.31799670892335e-05
2.6647875545455e-06,2.70866578436119e-06,7.44889291344691e-06,1.28223462523536e-05
2.9025487155075e-06,2.71502152045784e-06,6.98968365528468e-06,1.260725389125e-05
2.75879609724071e-06,2.59227159253962e-06,6.8859251421683e-06,1.22369928319486e-05
2.66995891847511e-06,2.70812995648631e-06,6.77371216407429e-06,1.21518010390357e-05
2.89258452908272e-06,2.67704083940263e-06,6.99483542189728e-06,1.25644607903826e-05
2.95425690788422e-06,3.24357851385439e-06,7.27786442291169e-06,1.34756998446503e-05
2.77492701441175e-06,2.6192018630176e-06,6.32881756271649e-06,1.17229464401458e-05
2.77674255026004e-06,2.54746499393097e-06,6.8818979403076e-06,1.22061054844986e-05
2.70600568788424e-06,2.58795311439848e-06,6.18214028041389e-06,1.14760990826966e-05
2.69700608114743e-06,2.61420344318173e-06,6.64745547658416e-06,1.19586650009133e-05
3.06949092990009e-05,1.22724655979331e-05,1.88911610527909e-05,6.18585359497249e-05
0.00012255305080663,0.000108213795862832,0.000115054328382796,0.000345821175052258
2.49693085131315e-05,1.96601089605242e-05,2.38959826533366e-05,6.85254001269923e-05
1.27831213886439e-05,2.36153347544287e-05,1.7771698580543e-05,5.41701547236156e-05
0.000188556304511949,7.80783426099394e-05,0.000140942367792222,0.00040757701491411
3.34693678120031e-06,3.71738661952015e-06,7.50887917617021e-06,1.45732025768907e-05
4.14443287403842e-06,5.5908443471681e-06,9.61997459232539e-06,1.93552518135319e-05
2.7282301178109e-06,3.09613423119261e-06,7.05180250375134e-06,1.28761668527549e-05
2.68250807757961e-06,2.93577038317586e-06,6.53483521128218e-06,1.21531136720377e-05
2.6675337615902e-06,2.88623899283872e-06,6.63742120302963e-06,1.21911939574586e-05
2.63498068350484e-06,2.81294419276607e-06,6.47369950273198e-06,1.19216243790029e-05
2.58692354642517e-06,2.76078865216205e-06,6.47723009135023e-06,1.18249422899375e-05
2.67620776200876e-06,2.78347689570738e-06,6.05862905064436e-06,1.15183137083605e-05
2.50659502260061e-06,2.6906003087782e-06,6.27581377974986e-06,1.14730091111287e-05
2.68949274403861e-06,2.78805180245069e-06,6.57502709747155e-06,1.20525716439609e-05
2.64948779136049e-06,2.78240614811377e-06,6.49669623144006e-06,1.19285901709143e-05
2.6222402653799e-06,2.77061151861161e-06,6.16345823695105e-06,1.15563100209426e-05
2.57846978205031e-06,2.81337526329206e-06,6.59959609875751e-06,1.19914411440999e-05
2.63091171993304e-06,2.95047617414339e-06,6.62538996446638e-06,1.22067778585428e-05
2.74808316598621e-06,2.82588402376417e-06,6.34671301326732e-06,1.19206802030177e-05
2.62806773206273e-06,2.87509035532525e-06,6.5423046606968e-06,1.20454627480848e-05
2.66088267031972e-06,2.79013906257328e-06,6.15467380575011e-06,1.16056955386431e-05
2.57386556162181e-06,2.74135163940552e-06,6.34412389032038e-06,1.16593410913477e-05
2.59698500417234e-06,2.75506012635001e-06,6.28482660421333e-06,1.16368717347357e-05
2.70792106152289e-06,2.80474510559564e-06,6.76246965177595e-06,1.22751358188945e-05
2.65489170423811e-06,2.73108138901871e-06,6.69292437608395e-06,1.20788974693408e-05
2.59583553420333e-06,2.73562019231519e-06,6.43391740050391e-06,1.17653731270224e-05
2.64269202921454e-06,2.79184992483836e-06,6.43936171998301e-06,1.18739036740359e-05
3.40287233227505e-06,2.94221861766843e-06,6.62692326766062e-06,1.29720142176041e-05
2.64738959496431e-06,2.88593259013153e-06,6.43385486409618e-06,1.1967177049192e-05
2.63462526000029e-06,2.86114293328837e-06,6.471834414286e-06,1.19676026075747e-05
2.5362756720483e-06,2.76009959985293e-06,6.42848221068748e-06,1.17248574825887e-05
2.63861133863213e-06,2.76791145971388e-06,6.42456932976654e-06,1.18310921281126e-05
2.5399832804991e-06,2.76877559453362e-06,6.26250604058368e-06,1.15712649156164e-05
2.58322575750317e-06,2.83391496245331e-06,6.22708043490159e-06,1.16442211548581e-05
2.72403289763652e-06,2.67806863427904e-06,6.49160094781845e-06,1.1893702479734e-05
2.74423072069566e-06,2.89525886105338e-06,6.68865543517382e-06,1.23281450169229e-05
2.62393565724621e-06,2.7667065164671e-06,6.3015544253859e-06,1.16921965990992e-05
2.58518853901513e-06,2.64077497411358e-06,6.37632030134187e-06,1.16022838144706e-05
2.69671268875282e-06,2.85155156718232e-06,6.2561713481236e-06,1.18044356040587e-05
2.65922463650589e-06,2.76731064605889e-06,6.03596373907922e-06,1.1462499021644e-05
2.62564658913046e-06,2.68066401546822e-06,6.26386673604039e-06,1.15701773406391e-05
2.62458422503611e-06,2.69254323742863e-06,6.45229225614413e-06,1.17694197186089e-05
2.70065856448989e-06,2.7506169265948e-06,6.29475593803588e-06,1.17460314291206e-05
2.60800208601222e-06,2.68384593858138e-06,6.20058138868638e-06,1.149242941328e-05
2.61919833674487e-06,2.66437093328383e-06,6.3147809194112e-06,1.15983501894399e-05
2.73525141212683e-06,2.61699452538709e-06,6.27703910662543e-06,1.16292850441394e-05
2.71221833278536e-06,2.65942879369397e-06,6.45905581400875e-06,1.18307029404881e-05
2.63328464694086e-06,2.74754558498597e-06,6.20228172429461e-06,1.15831119562214e-05
2.66939884103843e-06,2.6939473161963e-06,6.18691198592827e-06,1.1550258143163e-05
2.55696350896995e-06,2.6386050713295e-06,6.17895536441296e-06,1.13745239447124e-05
2.66301837518549e-06,2.75800523340579e-06,6.54440199777402e-06,1.19654256063653e-05
2.62438978754255e-06,2.7727000240754e-06,6.82757973120507e-06,1.2224669542823e-05
2.69207266970876e-06,2.91777542566368e-06,6.3260441735584e-06,1.19358922689308e-05
2.64697772224613e-06,2.78646879594434e-06,6.37467809388638e-06,1.18081246120768e-05
2.55976363100238e-06,2.67819985415098e-06,6.55813293190848e-06,1.17960964170618e-05
2.70264456185027e-06,2.7406035713206e-06,6.44865526151176e-06,1.18919033946826e-05
2.62434796221423e-06,2.73404735505422e-06,6.7687350893499e-06,1.21271304066184e-05
2.73534371623576e-06,2.69741946304615e-06,6.54173424833303e-06,1.19744974276149e-05
2.686337332435e-06,2.65787005506412e-06,6.20017019902344e-06,1.15443775865226e-05
2.6542847308701e-06,2.69146360414244e-06,6.04986106988113e-06,1.13956094048937e-05
2.63147425277627e-06,2.6741936855706e-06,6.30083856139571e-06,1.16065064997426e-05
2.66425988133194e-06,2.7793164701447e-06,6.53946030899163e-06,1.19830366604683e-05
2.61450348299699e-06,2.67075279578793e-06,6.14665315204559e-06,1.14319094308305e-05
2.70887576572011e-06,2.7220677702585e-06,6.45366720716644e-06,1.1884610743145e-05
2.64533879163446e-06,2.75711101536696e-06,6.13818394212376e-06,1.15406337491252e-05
2.75726961856884e-06,2.78057814218168e-06,6.43498075736746e-06,1.1972828518118e-05
2.81704301912248e-05,2.44123127451524e-05,2.95721424019839e-05,8.21548853383611e-05
0.000236829392345755,0.000213037074287701,0.00018150998789931,0.000631376454532766
0.000184797430573177,0.000172815168562013,0.000130579685801792,0.000488192284936983
4.63221047717189e-06,4.11627370083e-06,1.13742935535327e-05,2.01227777315346e-05
1.24599608010814e-05,8.37684937212817e-06,1.53608042473304e-05,3.61976144205399e-05
3.0030979041225e-06,3.14383565930165e-06,8.58459908904708e-06,1.47315326524712e-05
2.97446955186773e-06,3.17246478703058e-06,8.80575771519593e-06,1.49526920540942e-05
3.06916645166489e-06,3.30588170673493e-06,8.45081568351085e-06,1.48258638419107e-05
2.90844364488159e-06,2.9532116140998e-06,7.7541130066278e-06,1.36157682656092e-05
2.86517753090162e-06,2.94412789557092e-06,7.80367441160854e-06,1.36129798380811e-05
2.80798355457016e-06,2.89515790643982e-06,7.17876529034707e-06,1.2881906751357e-05
2.79568704441592e-06,2.88642095264447e-06,7.19791074928975e-06,1.28800187463501e-05
2.85510410533565e-06,2.92025260792752e-06,7.71544686631201e-06,1.34908035795752e-05
3.02159571583979e-06,2.93393046437013e-06,7.42518151106771e-06,1.33807076912776e-05
2.83699964818938e-06,2.95443686111159e-06,7.80470803012857e-06,1.35961445394295e-05
2.88552029722787e-06,2.84248495185062e-06,7.27269789648043e-06,1.30007031455589e-05
2.84448972907829e-06,2.94974860913554e-06,7.25032958827487e-06,1.30445679264887e-05
2.78972124706779e-06,2.76653821062759e-06,7.33445423695431e-06,1.28907136946497e-05
2.91231362044392e-06,2.89910154231692e-06,7.24769958190119e-06,1.3059114744662e-05
2.87553272438491e-06,2.82767898947456e-06,6.97003092139209e-06,1.26732426352516e-05
2.92623080313536e-06,2.94479250949134e-06,7.09376083485778e-06,1.29647841474845e-05
2.87208455118634e-06,2.84381459462076e-06,7.65849794198509e-06,1.33743970877922e-05
2.85715354242103e-06,2.78033152575159e-06,7.13407935656963e-06,1.27715644247423e-05
2.88971189863367e-06,2.79816019087242e-06,7.12277181775208e-06,1.28106439072582e-05
2.22247716182648e-05,1.59641801263409e-05,1.96091742484965e-05,5.77981259931021e-05
0.000573945632538948,0.000364732165016182,0.000261977786316609,0.00120065558387174
0.00014374172292867,8.17078786313524e-05,9.75981332782766e-05,0.000323047734838299
6.96644570925897e-05,4.91235694024134e-05,7.23655201395388e-05,0.000191153546634542
4.20610445695122e-06,4.75188183575388e-06,9.54980721701957e-06,1.85077935097247e-05
3.73376995369772e-06,3.95464212786495e-06,8.84493303580509e-06,1.65333451173678e-05
3.60114246473198e-06,3.83461135234092e-06,8.69661098093904e-06,1.61323647980119e-05
3.40258690031021e-06,3.67621428270645e-06,8.15565292574811e-06,1.52344541087648e-05
3.34970383459444e-06,3.3686340594725e-06,7.61273214269453e-06,1.43310700367615e-05
3.22668527812536e-06,3.37573883950853e-06,7.54757880702408e-06,1.4150002924658e-05
3.19518673973055e-06,3.26376865454194e-06,7.48457254803401e-06,1.39435279423065e-05
3.25893685051026e-06,3.32023161196491e-06,7.52381199612689e-06,1.41029804586021e-05
3.20555738697727e-06,3.13288497625278e-06,7.2805225877122e-06,1.36189649509423e-05
3.17056491428729e-06,3.1178505545936e-06,7.67564136971492e-06,1.39640568385958e-05
3.20258086090457e-06,3.20993990189169e-06,7.73490707955855e-06,1.41474278423548e-05
3.10330926724118e-06,3.13086654079486e-06,7.30005376428219e-06,1.35342295723182e-05
3.21547864741669e-06,3.15670380124715e-06,7.66768065700921e-06,1.4039863105673e-05
3.16168119393158e-06,3.14542502579644e-06,7.28144245517489e-06,1.35885486749029e-05
3.14847557743116e-06,3.0707838034735e-06,7.51273085950016e-06,1.37319902404048e-05
3.2335984456717e-06,3.13393241490846e-06,7.3299266630796e-06,1.36974575236598e-05
3.08365619633588e-06,3.15304260822867e-06,7.50475462307925e-06,1.37414534276438e-05
3.20426087057447e-06,3.18331517163535e-06,7.57171030822687e-06,1.39592863504367e-05
3.09291994718879e-06,3.06178413340755e-06,7.25646288056106e-06,1.34111669611574e-05
3.13332951004987e-06,3.02510221255697e-06,7.22610127882526e-06,1.33845330014321e-05
3.11716397933649e-06,2.85400041624335e-06,7.1939918122897e-06,1.31651562078695e-05
3.14579178914389e-06,3.09129469699621e-06,7.3458871695451e-06,1.35829736556852e-05
3.20111250353061e-06,2.99562283762636e-06,7.04524942249334e-06,1.32419847636503e-05
3.29261493090911e-06,3.16894878558197e-06,7.40593316760911e-06,1.38674968841002e-05
3.13077579980238e-06,2.98689156254883e-06,6.91874904471206e-06,1.30364164070633e-05
3.2691746739832e-06,3.06632025204242e-06,7.52089168701481e-06,1.38563866130404e-05
3.06852944613286e-06,2.98721880392865e-06,7.17793285675731e-06,1.32336811068188e-05
2.28368865704774e-05,3.29646785378087e-05,3.00717415879568e-05,8.58733066962428e-05
3.63013790163154e-05,2.30189597709925e-05,3.52759477904221e-05,9.459628657773e-05
3.1840948056601e-06,3.03410469812673e-06,7.52979987706098e-06,1.37479993808478e-05
3.15381515987316e-06,2.84047484135421e-06,7.46559818951826e-06,1.34598881907456e-05
3.21249118685764e-06,2.97238748404411e-06,7.56183381612149e-06,1.37467124870232e-05
3.04287374890755e-06,2.83684057766556e-06,7.26046173663729e-06,1.31401760632104e-05
3.17513338235028e-06,2.7940615439103e-06,7.35016557742601e-06,1.33193605036866e-05
3.08569582484928e-06,2.67049842061024e-06,7.05949460143759e-06,1.28156888468971e-05
3.14810343670608e-06,2.78660591193323e-06,7.38334471806585e-06,1.33180540667052e-05
3.1191407858063e-06,2.8474232172789e-06,7.34206043139586e-06,1.3308624434481e-05
3.12999976117353e-06,2.84927994219993e-06,7.45334908542465e-06,1.34326287887981e-05
3.09519786269131e-06,2.79458921947443e-06,7.21425220387424e-06,1.310403928604e-05
3.209501917211e-06,2.89838065630542e-06,7.28282128445983e-06,1.33907038579762e-05
3.22294505486762e-06,2.84713660637743e-06,7.16712449142061e-06,1.32372061526657e-05
3.18939793887762e-06,2.9121126690267e-06,7.40061484205322e-06,1.35021254499575e-05
4.72599984511748e-06,5.341189880253e-06,9.58897513648518e-06,1.96561648618557e-05
3.14602853349328e-06,2.9213395997206e-06,7.2066376186812e-06,1.32740057518951e-05
3.13491311215457e-06,2.85191517613129e-06,7.20599193387784e-06,1.31928202221637e-05
3.30431049214373e-06,3.24655068501288e-06,7.36833230280781e-06,1.39191934799644e-05
3.1463920890272e-06,2.95392703527434e-06,7.4000691284885e-06,1.350038825279e-05
3.4971419157545e-06,3.38069769783098e-06,7.76372170559469e-06,1.46415613191802e-05
3.5127632309347e-06,3.15111495262617e-06,7.98304788506127e-06,1.46469260686221e-05
3.29637970822611e-06,2.96213141096997e-06,7.34667021881097e-06,1.36051813380071e-05
3.22360287953737e-06,2.86120839459035e-06,7.32041342477902e-06,1.34052246989067e-05
3.15032859015495e-06,2.77604889621931e-06,7.30765480651969e-06,1.3234032292894e-05
3.21255823336741e-06,2.76904829936978e-06,7.66384947358697e-06,1.36454560063242e-05
3.08569908734452e-06,2.92023593135414e-06,7.39307456267806e-06,1.33990095813767e-05
3.26547158019689e-06,2.91556850938495e-06,7.29404177362539e-06,1.34750818632072e-05
3.17037250921154e-06,2.74677750143026e-06,7.66716226905906e-06,1.35843122797009e-05
3.21979747531346e-06,2.9568448827255e-06,7.40827409884923e-06,1.35849164568882e-05
3.46252520285128e-06,3.0673838850683e-06,7.91263506789893e-06,1.44425441558185e-05
4.8230891885926e-06,3.74416621343538e-06,8.12756981231221e-06,1.66948252143402e-05
3.26237929628913e-06,2.93382702256255e-06,7.49854079386808e-06,1.36947471127198e-05
3.35142137426347e-06,3.0849920902493e-06,7.90238828211237e-06,1.43388017466251e-05
3.29353167593112e-06,3.13865144488278e-06,7.60990360083315e-06,1.40420867216471e-05
3.41166601747661e-06,3.08555672336278e-06,7.64121722102082e-06,1.41384399618602e-05
3.36629424137855e-06,2.98961938113403e-06,7.8617140137172e-06,1.42176276362298e-05
3.33035399093713e-06,2.9924789642381e-06,7.84269446341675e-06,1.4165527418592e-05
3.25856423464664e-06,2.86118717082393e-06,7.68039121039535e-06,1.38001426158659e-05
3.21736322244606e-06,2.91860212914885e-06,7.52325693586269e-06,1.36592222874576e-05
3.33004237912944e-06,2.84925014666335e-06,7.73346450278761e-06,1.39127570285804e-05
3.3611476974312e-06,3.04821332420349e-06,7.85925858148035e-06,1.4268619603115e-05
3.33315249090786e-06,3.19596877756678e-06,8.33350654736169e-06,1.48626278158363e-05
3.57460491141302e-06,3.11096205443024e-06,8.24997289252524e-06,1.49355398583685e-05
3.48669838622399e-06,3.02866490023977e-06,8.10258292276912e-06,1.46179462092329e-05
3.46615334191908e-06,3.12066816654341e-06,8.14571710855879e-06,1.47325386170213e-05
3.44104652322022e-06,3.12540564399522e-06,8.21974061218972e-06,1.47861927794052e-05
3.36024372334333e-06,3.13684986569635e-06,8.27756302972974e-06,1.47746566187694e-05
3.4372016018322e-06,3.14637229901189e-06,7.84225384992558e-06,1.44258277507697e-05
3.50597423888923e-06,3.13162038103777e-06,8.32112951325805e-06,1.49587241331851e-05
3.31723219551356e-06,3.0273042810752e-06,8.11139240547416e-06,1.44559288820629e-05
3.381846489629e-06,3.0589417622523e-06,8.30022566223804e-06,1.47410139141193e-05
3.33769176155536e-06,3.14816340651926e-06,7.90938199336808e-06,1.43952371614427e-05
3.55448729548044e-06,3.12711403630557e-06,8.39084905916583e-06,1.50724503909518e-05
4.87888048187016e-06,4.30915614971601e-06,9.66848158815183e-06,1.8856518219738e-05
8.84335233079446e-05,4.33798317867404e-05,6.14481181234963e-05,0.000193261473218181
2.73445314545762e-05,2.05457500268072e-05,2.93480618231497e-05,7.72383433045332e-05
7.8920871643538e-05,2.46499348210594e-05,6.26112723731747e-05,0.000166182078837772
0.000367627444151373,0.000227904626637132,0.000270599346501458,0.000866131417289963
3.12172000992593e-05,2.4563044796201e-05,4.62512319388632e-05,0.000102031476834324
1.04601374642408e-05,1.23062794341399e-05,1.52243700931491e-05,3.79907869915298e-05
2.99532313226795e-06,3.43356984791592e-06,8.85846244167012e-06,1.5287355421854e-05
3.02562305658045e-06,3.26758920914235e-06,9.06374557299639e-06,1.53569578387192e-05
2.95664945553571e-06,3.22719529631076e-06,8.73844292787518e-06,1.49222876797216e-05
3.05339272930668e-06,3.21407372182707e-06,8.60331103704523e-06,1.4870777488179e-05
2.79388898129858e-06,2.98302457983084e-06,7.85363079732841e-06,1.36305443584578e-05
2.86146600021649e-06,2.889859779114e-06,7.60266661824003e-06,1.33539923975705e-05
2.99625082150543e-06,2.9496253976453e-06,8.18038324493256e-06,1.41262594640833e-05
2.80589339158865e-06,3.09186833401513e-06,7.82880255423439e-06,1.37265642798382e-05
2.83818994582367e-06,2.87389836392886e-06,7.51276316081437e-06,1.32248514705669e-05
2.89710837813412e-06,2.86816262821417e-06,7.6009878552273e-06,1.33662588615756e-05
2.90120737126058e-06,2.91710486895126e-06,7.68721889000339e-06,1.35055311302152e-05
2.83762349399172e-06,2.95724571149834e-06,7.60153036939259e-06,1.33963995748826e-05
2.81830237277095e-06,3.00795504610196e-06,7.6173673569559e-06,1.34436247758288e-05
2.91058314202113e-06,3.03177877383759e-06,7.72367745593522e-06,1.36660393717939e-05
3.01952258855033e-06,3.04212100697191e-06,7.70269107222155e-06,1.37643346677438e-05
2.86157505755222e-06,2.82943102600305e-06,7.27637796741236e-06,1.29673840509676e-05
2.84337805015717e-06,2.86182035144495e-06,7.64169525920812e-06,1.33468936608102e-05
2.94228991012317e-06,2.95987929325281e-06,7.51544186259636e-06,1.34176110659723e-05
2.91945002025788e-06,3.0390359949488e-06,8.0640294953577e-06,1.40225155105644e-05
2.81864876720975e-06,2.79700409405019e-06,7.10014187805431e-06,1.27157947393143e-05
2.91173517773557e-06,2.90532979943851e-06,7.49270141495113e-06,1.33097663921252e-05
2.87721379336305e-06,2.85132477934118e-06,7.2645881428069e-06,1.29931267155111e-05
2.84552452240943e-06,2.87862576120312e-06,7.34831617099214e-06,1.30724664546047e-05
2.91110988066196e-06,2.86086144478104e-06,7.40737477129342e-06,1.31793460967364e-05
2.90062887616253e-06,2.97585709853269e-06,7.4844729847126e-06,1.33609589594078e-05
2.81897639791012e-06,2.93707868037268e-06,7.36920849397304e-06,1.31252635722558e-05
2.88700473062518e-06,2.98593998175604e-06,7.46408042177995e-06,1.33370251341612e-05
2.53241186905921e-05,2.48222563358334e-05,2.16854271288858e-05,7.18318021553112e-05
7.32471656628422e-06,5.57328555585861e-06,1.20856940368234e-05,2.49836961589663e-05
5.53427838596439e-05,5.11433610633803e-05,4.8590190165164e-05,0.000155076335088188
3.73617799822924e-06,3.69501502977439e-06,8.45062510980564e-06,1.58818181378093e-05
3.05300969176538e-06,3.13536347872241e-06,7.7526984930462e-06,1.3941071663534e-05
3.02970515343872e-06,3.11729003080565e-06,7.80107973919918e-06,1.39480749234436e-05
3.01788589850828e-06,3.01559446953236e-06,7.63677862062492e-06,1.36702589886656e-05
2.86675281703295e-06,2.89984876582539e-06,7.24014232009197e-06,1.30067439029503e-05
2.97419681354238e-06,2.95387657248562e-06,7.74577276138429e-06,1.36738461474123e-05
2.9708952966611e-06,3.00019416570172e-06,7.38313750929793e-06,1.33542269716607e-05
2.92842422591567e-06,2.75552234622169e-06,7.37159362885211e-06,1.30555402009895e-05
2.94143492057557e-06,2.84384027221377e-06,7.48462527304149e-06,1.32699004658308e-05
2.74801861100897e-06,2.91415814076377e-06,7.04189198012046e-06,1.27040687318932e-05
2.87528980039084e-06,2.93424871638626e-06,7.19824639979553e-06,1.30077849165726e-05
2.85306419618067e-06,2.94918743936224e-06,7.33197681446188e-06,1.31342284500048e-05
2.83673602365385e-06,2.86318001625901e-06,7.18656072529693e-06,1.28864767652098e-05
2.89954649024638e-06,2.87865053947469e-06,7.23729125189694e-06,1.3015488281618e-05
2.95170148709408e-06,2.90101868951218e-06,7.48771087563222e-06,1.33404310522385e-05
3.12634372073131e-06,2.99319206098612e-06,8.19451707477007e-06,1.43140528564875e-05
3.02111456327077e-06,2.93938520633511e-06,7.3773190394345e-06,1.33378188090404e-05
2.93233253323781e-06,2.92096674655996e-06,7.41507575043689e-06,1.32683750302347e-05
3.11313243300334e-06,3.1608413897676e-06,7.96982504972375e-06,1.42437988724947e-05
2.98756066377025e-06,3.01006204002038e-06,7.68866207130335e-06,1.3686284775094e-05
2.97782841563474e-06,3.10407673320522e-06,7.72530385404546e-06,1.38072090028854e-05
3.06629721839148e-06,3.14654241743105e-06,8.04032567646077e-06,1.42531653122833e-05
1.35943860263115e-05,8.6505193173421e-06,1.18976850636547e-05,3.41425904073083e-05
3.04790252190564e-06,2.96837377838347e-06,7.8495936247477e-06,1.38658699250368e-05
3.05827633796391e-06,3.03431419874653e-06,7.75480183886659e-06,1.3847392375577e-05
3.08014487388728e-06,3.03574227203881e-06,7.58902474162856e-06,1.37049118875547e-05
3.05103460054062e-06,3.08044111497335e-06,7.87570988561609e-06,1.40071856011301e-05
2.93699735729394e-06,2.94171104258035e-06,7.40040591519753e-06,1.32791143150718e-05
2.93893851989524e-06,2.87585919538786e-06,7.36047071856667e-06,1.31752684338498e-05
4.13849009914805e-06,5.58834136240793e-06,8.992260489275e-06,1.8719091950831e-05
9.07382864840756e-05,4.7286563543214e-05,5.78609576822498e-05,0.000195885807709539
0.000343936550692045,0.000207453308816031,0.000295748924009708,0.000847138783517784
4.69067280180505e-05,2.30869171223757e-05,3.48307210850254e-05,0.000104824366225452
4.27304315657635e-06,5.06032779890397e-06,1.25810166069971e-05,2.19143875624774e-05
3.95262866299787e-06,4.2086350944625e-06,1.15901724042693e-05,1.97514361617297e-05
3.91127869267092e-06,4.1478388721029e-06,1.17825338488328e-05,1.98416514136066e-05
3.97728321877417e-06,4.07918745470457e-06,1.0710404390995e-05,1.87668750644737e-05
3.79687066235663e-06,4.04965486531728e-06,1.04811240118477e-05,1.83276495395216e-05
3.69345945528903e-06,3.91345063860843e-06,9.80048792795935e-06,1.74073980218568e-05
3.99056346068622e-06,4.02879103001329e-06,9.59614943092878e-06,1.76155039216283e-05
3.64784405769334e-06,3.94995554355252e-06,9.35588834205613e-06,1.6953687943302e-05
3.92509635608353e-06,3.75444929146285e-06,9.33566163588888e-06,1.70152072834353e-05
3.852108544982e-06,3.78449150862478e-06,9.19897357298998e-06,1.68355736265968e-05
3.7469527811892e-06,3.79994879854596e-06,9.3438151226844e-06,1.68907167024196e-05
3.80544993950341e-06,3.77910760337118e-06,9.2837040229591e-06,1.68682615658337e-05
3.75952934740661e-06,3.59450586442571e-06,9.18818987666917e-06,1.65422250885015e-05
3.85407971359366e-06,3.91743543486385e-06,9.67257379326663e-06,1.74440889417241e-05
4.19603718440213e-06,4.00921901419458e-06,9.87178961782533e-06,1.8077045816422e-05
3.75484449664928e-06,3.88761036325538e-06,9.0490443840206e-06,1.66914992439253e-05
4.02189279524016e-06,4.0350691955006e-06,9.49665047235965e-06,1.75536124631004e-05
4.25752641219514e-06,4.26042330836743e-06,1.01894019201521e-05,1.87073516407146e-05
4.29945086938379e-06,4.45948509192925e-06,1.0689869188713e-05,1.94488051500261e-05
5.79753839560088e-06,6.19201718037853e-06,1.08820994780804e-05,2.28716550540598e-05
4.14195742976755e-06,3.91932374353725e-06,9.45766510087772e-06,1.75189462741825e-05
4.06069894977578e-06,3.98980204299815e-06,9.02476302407667e-06,1.70752640168506e-05
4.16666332664179e-06,4.22945622514625e-06,1.03600869491113e-05,1.87562065008993e-05
4.16841056567398e-06,4.18788602234116e-06,1.04962216005047e-05,1.88525181885199e-05
4.04251050647457e-06,4.06236143700067e-06,9.92600866034453e-06,1.80308806038198e-05
3.81304999905796e-06,3.88859797000602e-06,9.83529250911887e-06,1.75369404781828e-05
3.89894976260808e-06,3.75260849996409e-06,9.90748382427489e-06,1.75590420868471e-05
3.89802545843416e-06,3.90747914749453e-06,9.51108518589067e-06,1.73165897918194e-05
4.03109813314141e-06,3.90969077119607e-06,9.42239219335931e-06,1.73631810976968e-05
3.87463352478107e-06,3.76598314036171e-06,9.33603278974102e-06,1.69766494548838e-05
3.97401682316257e-06,3.80637989187194e-06,9.6407523876507e-06,1.74211491026852e-05
3.80359965802393e-06,3.79027498450763e-06,9.3646870410233e-06,1.69585616835549e-05
3.83527368787543e-06,3.6872103412327e-06,9.05680734217112e-06,1.65792913712793e-05
3.7738105189636e-06,3.70949966841794e-06,9.46431064952877e-06,1.69476208369103e-05
3.92613363908009e-06,3.82194038272049e-06,9.29030615140768e-06,1.70383801732083e-05
3.96682827789243e-06,3.87203593060328e-06,9.4139700683755e-06,1.72528342768712e-05
4.04785864315162e-06,3.91573272913846e-06,9.39773325428286e-06,1.73613246265729e-05
4.19200186681587e-06,3.98074624590301e-06,9.6788630240846e-06,1.78516111368035e-05
3.94664683191985e-06,3.93626170365035e-06,9.88287312928609e-06,1.77657816648563e-05
4.06502554095154e-06,3.84196548774061e-06,9.5758359917862e-06,1.74828270204783e-05
3.94225954480393e-06,3.82903954077174e-06,9.51674575738053e-06,1.72880448429562e-05
3.72319403678751e-06,3.78988293708106e-06,9.63700011198143e-06,1.715007708585e-05
3.83936085027475e-06,3.90941842296201e-06,9.56221077793336e-06,1.73109900511701e-05
3.88289500032907e-06,3.84120892549648e-06,9.56736799580587e-06,1.72914719216314e-05
4.05515199095647e-06,3.88334942346238e-06,9.97455154205943e-06,1.79130529564783e-05
4.00173011769147e-06,3.89744287690693e-06,9.30897756876352e-06,1.72081505633619e-05
4.28570165580209e-06,4.00796202676257e-06,9.80512728537338e-06,1.8098790967938e-05
4.70003808983357e-06,4.51241073955678e-06,1.0063807970529e-05,1.92762567999193e-05
4.31983317248928e-06,3.76816035495156e-06,9.46321507395155e-06,1.75512086013924e-05
3.8793933317972e-06,3.59011890117329e-06,9.58431198118993e-06,1.70538242141604e-05
4.06615395950332e-06,3.87925987063506e-06,1.00890416003234e-05,1.80344554304618e-05
4.20393801769395e-06,3.93661714013125e-06,9.15126633153934e-06,1.72918214893645e-05
4.37389035811126e-06,3.89060855407473e-06,9.53284528930607e-06,1.77973442014921e-05
4.39811687198407e-06,4.05740061957353e-06,9.98747711488996e-06,1.84429946064476e-05
4.67474735176708e-06,4.09125360843915e-06,1.00792046986722e-05,1.88452056588784e-05
1.04580363203717e-05,6.57695428785535e-06,1.08814000847608e-05,2.79163906929879e-05
3.81648253172692e-06,3.48702757268077e-06,9.25328623917931e-06,1.6556796343587e-05
3.796520435558e-06,3.3554908749582e-06,8.88073363622123e-06,1.60327449467374e-05
3.75066999604928e-06,3.37840856278301e-06,8.620355109461e-06,1.57494336682933e-05
4.04099002732586e-06,3.53089878316379e-06,9.02806535989413e-06,1.65999541703838e-05
4.78962382914602e-06,4.06633270337222e-06,9.40685691566123e-06,1.82628134481795e-05
9.79852618601796e-05,7.48670446221625e-05,0.000103455223336964,0.000276307529819306
5.52664337608735e-05,2.96565007654271e-05,3.54441337586219e-05,0.000120367068284923
1.53195537895116e-05,1.31882114675796e-05,2.10429824419907e-05,4.9550747699082e-05
0.000100767161503271,6.8906164095441e-05,9.11934931324715e-05,0.000260866818731184
0.000514350636339107,0.000287787071154799,0.00033954382262983,0.00114168153012374
0.000144900938946307,0.000149459487363105,0.000186028268484345,0.000480388694793758
0.000250486892630343,0.000147005475118918,0.000249853439286286,0.000647345807035547
0.000213557450131892,0.000104750272699912,0.000153341039208924,0.000471648762040728
0.000251460233924714,0.000169466618264382,0.000257895191900302,0.000678822044089398
0.000245299762384793,0.000395783975010979,0.000305567565007012,0.000946651302402783
0.000180209350362197,0.0003120830051353,0.000262863711564777,0.000755156067062274
0.00019671709231188,0.000331748853931317,0.000170708526345407,0.000699174472588605
0.000117617818976718,0.000166282316650542,0.000142850541365753,0.000426750676993013
0.000203249481986717,0.000317332575635468,0.000292996754278624,0.00081357881190081
3.68607524767481e-05,1.82509395662913e-05,4.45220729864272e-05,9.96337650294666e-05
2.00797071239648e-05,3.28834269678961e-05,3.43129377884167e-05,8.72760718802776e-05
3.87618373650493e-05,7.10750414039043e-05,6.75742228311234e-05,0.000177411101600077
8.31799920407844e-05,0.000141644226285447,0.000207480503439846,0.000432304721766078
0.000413577331022296,0.00127570891861289,0.000846347497501071,0.00253563374713626
0.000696871408909524,0.0045007158400422,0.00184907841075199,0.00704666565970372
0.0013673235432792,0.00253693873868743,0.00215668515833027,0.00606094744029689
0.00053490079806884,0.00149440146754364,0.000946191779049021,0.0029754940446615
0.000444753521209891,0.00134044745369386,0.000676495668804308,0.00246169664370806
0.000481198456481743,0.00147193912776934,0.000737651827337802,0.00269078941158888
0.000498586901720436,0.0014994005174708,0.000968998737009138,0.00296698615620037
0.0006392789784871,0.00148287176311659,0.000909260499777171,0.00303141124138086
0.000574960032096062,0.00167998610055649,0.000860009301396467,0.00311495543404902
0.000451382623993312,0.00152903683154973,0.000801847268129456,0.0027822667236725
0.000700007015243412,0.00228862887432547,0.00127502662901532,0.0042636625185842
0.000465779454548623,0.00150296871571934,0.000855610947933253,0.00282435911820121
0.000873785874671187,0.00187251937936486,0.00102785829518244,0.00377416354921849
0.000767823483642099,0.00210402420682494,0.000747475414081126,0.00361932310454817
0.000782171778773552,0.00181618711266726,0.000871448725436291,0.00346980761687711
0.000293396005750974,0.00077770038124854,0.000446401913172473,0.00151749830017199
9.2271722792488e-05,0.00015455563944164,0.000110782848665832,0.00035761021089996
0.000158878045100425,0.000261754247669448,0.000193685275199478,0.000614317567969351
8.52791650679996e-05,0.000242881433223909,0.000146881284951757,0.000475041883243665
0.00017112452692117,0.000311089147764282,0.000165283229609454,0.000647496904294906
0.000226707546166687,0.000532459839961182,0.000280398944584325,0.00103956633071219
8.8462567284287e-05,0.000156275796528762,8.60570249921521e-05,0.000330795388805201
8.30512503201786e-05,7.72533128864546e-05,0.000102912670273117,0.00026321723347975
4.54794592776544e-05,5.42156478370575e-05,5.53838369032682e-05,0.00015507894401798
0.000121680099171797,0.000169413105644436,8.90989366424982e-05,0.000380192141458732
0.000163016065737487,0.000255342494062798,0.000235847315263355,0.000654205875063641
6.99887787524286e-05,6.55989129504385e-05,8.20150188864881e-05,0.000217602710589355
0.000101064672158466,5.69365222985389e-05,9.1393360240525e-05,0.00024939455469753
5.52170375702105e-05,3.30626847997658e-05,5.94759939263251e-05,0.000147755716296301
4.0072891037679e-05,4.65382034204113e-05,6.74395453824684e-05,0.000154050639840559
1.44301545555721e-05,1.47180917677502e-05,2.82933102823935e-05,5.74415566057159e-05
2.74244698581721e-05,3.59922757105293e-05,3.86454113995204e-05,0.000102062156968222
2.19370971847901e-05,2.67625228600821e-05,4.33396032450056e-05,9.20392232898778e-05
1.01579549966549e-05,2.19745339223281e-05,2.55536364458334e-05,5.76861253648163e-05
2.85527820465522e-05,3.26973480301393e-05,5.18935120515182e-05,0.00011314364212821
2.13854786223001e-05,3.14144724753443e-05,3.68074286840609e-05,8.96073797817053e-05
2.59651046061874e-05,4.88985011848841e-05,4.36065115764119e-05,0.000118470117367483
1.14715220940374e-05,2.66777055258497e-05,3.68170341377706e-05,7.49662617576577e-05
4.51765335639543e-05,8.22383478036221e-05,4.5634158433735e-05,0.000173049039801311
6.42708295783722e-05,0.000136530567545502,0.000139803679588537,0.000340605076712411
1.96415623578901e-05,2.98558292844585e-05,3.66893281502977e-05,8.61867197926463e-05
1.1431121202837e-05,2.40302988121047e-05,2.95545460181859e-05,6.50159660331277e-05
1.52682713023506e-05,1.25927671946588e-05,2.49579166259661e-05,5.28189551229755e-05
0.000187448774298936,8.56390098107106e-05,0.00011308179908655,0.000386169583196196
5.92576727147314e-05,3.95313038900019e-05,4.8274276888259e-05,0.000147063253492992
5.64341215532815e-05,5.98402581139998e-05,5.48360817650993e-05,0.000171110461432381
0.000198611637070306,0.000208219084571732,0.000325455622985382,0.00073228634462742
2.42177138499234e-05,1.33183386032053e-05,3.18346969499995e-05,6.93707494031281e-05
6.90129704822555e-06,5.70050129280301e-06,1.77014408865228e-05,3.03032392275514e-05
1.52756957420267e-05,8.92018078021582e-06,1.9089513927215e-05,4.32853904494575e-05
8.40120504988564e-06,1.08053527922828e-05,2.1753761589698e-05,4.09603194318665e-05
2.52060603123749e-05,2.31857862107031e-05,3.53855112381201e-05,8.3777357761198e-05
2.23770517847134e-05,2.20825511772797e-05,3.86167652015748e-05,8.30763681635678e-05
1.96660559229862e-05,1.61063181394196e-05,3.73013826016282e-05,7.3073756664034e-05
0.000105476033131692,2.94067858014154e-05,6.73220410997644e-05,0.000202204860032872
8.88237450705472e-05,4.55067652602726e-05,5.02713511663429e-05,0.000184601861497163
0.000139287192620039,3.43122926733795e-05,6.69409540232174e-05,0.000240540439316636
1.1438432562575e-05,1.22519723845276e-05,2.93711605490385e-05,5.30615654961411e-05
1.29612558108934e-05,1.24552920451418e-05,1.98396013146938e-05,4.5256149170729e-05
1.6382831559128e-05,1.59933918874407e-05,2.17153769481354e-05,5.40916003947042e-05
2.01614714059194e-05,1.50231372891921e-05,1.99384956449909e-05,5.51231043401024e-05
8.1079653612388e-06,1.40261373406631e-05,2.08899242831596e-05,4.30240269850616e-05
3.97101370988706e-05,3.33696912734042e-05,6.57608393698332e-05,0.000138840667742108
1.01853409300199e-05,1.16879934251431e-05,2.26124256814837e-05,4.44857600366467e-05
9.27741779342044e-06,6.98240939505792e-06,1.93708546655826e-05,3.5630681854061e-05
5.8137600752265e-06,5.00996885645714e-06,1.59217870152813e-05,2.67455159469649e-05
4.19085044507144e-06,3.71011032369212e-06,1.29156845503743e-05,2.08166453191378e-05
1.50318650881937e-05,2.05087876334517e-05,6.13469078201234e-05,9.68875605417688e-05
4.88808614951585e-06,4.19192716886774e-06,1.23337545431415e-05,2.14137678615251e-05
4.73460824843755e-06,4.07309141320127e-06,1.42142997222682e-05,2.30219993839071e-05
2.34380060241317e-05,2.37043686121569e-05,3.76330437833328e-05,8.47754184196214e-05
2.21623789499796e-05,1.18435334064187e-05,2.84685203580068e-05,6.24744327144051e-05
2.23479954370753e-05,1.47118217805851e-05,2.26151316183567e-05,5.96749488360171e-05
2.85535399138836e-05,2.18168686335141e-05,3.27229487460977e-05,8.30933572934953e-05
3.80974136033634e-05,2.5529874478543e-05,4.47633653315604e-05,0.000108390653413467
3.82430448770577e-05,4.3123853943712e-05,5.43292580440467e-05,0.000135696156864816
2.4307062962694e-05,3.05319560963183e-05,4.13897828651359e-05,9.62288019241482e-05
2.44061997360959e-05,2.22928692411236e-05,3.76745818427097e-05,8.43736508199292e-05
1.1870659175619e-05,1.53919238563477e-05,3.7139857127569e-05,6.44024401595357e-05
3.18323578768382e-05,3.28018653016712e-05,5.58032462881819e-05,0.000120437469466691
5.41687889212973e-05,9.37113446197882e-05,7.64942890139935e-05,0.000224374422555079
4.16594630102624e-05,3.5952832685894e-05,4.88810992487254e-05,0.000126493394944882
8.92089556872406e-05,7.94970948366122e-05,9.09692740322488e-05,0.000259675324556102
0.000179327814973227,9.95625960324697e-05,0.000140399154135329,0.000419289565141026
6.21423782422745e-05,4.78733939468231e-05,6.07886132008472e-05,0.000170804385389945
3.98840912958255e-05,4.08877942013005e-05,4.83362091695793e-05,0.000129108094666705
8.12154230242508e-05,0.000110379708961395,8.74825801413151e-05,0.000279077712126961
2.57011785591553e-05,1.98124596412938e-05,4.00589122939869e-05,8.5572550494436e-05
2.93872103722198e-05,1.35321023528981e-05,2.36840448370154e-05,6.66033575621332e-05
4.81386589035922e-05,1.97610855543435e-05,4.03173722039736e-05,0.000108217116661909
9.93924628118777e-05,4.89478026551148e-05,6.85474855920036e-05,0.000216887751058996
0.000113530587120618,4.80322121183427e-05,6.84560093037428e-05,0.000230018808542704
8.49449624600703e-05,4.6492938812239e-05,7.51681086060218e-05,0.000206606009878331
8.44615183457073e-05,3.03111970322763e-05,6.91419740956338e-05,0.000183914689473617
7.76432949515268e-05,0.000224872034343513,0.000112819118119932,0.000415334447414971
4.56272845905351e-05,8.77762210580229e-05,7.13574729121073e-05,0.000204760978560665
1.44047292038859e-05,7.89660110153452e-06,3.5367560528149e-05,5.76688908335694e-05
7.57931957915104e-05,3.55118630764751e-05,7.15301307438015e-05,0.000182835189611787
2.57373994382434e-05,4.31321033467654e-05,3.36249894520085e-05,0.000102494492237017
4.5297313087499e-06,3.83412553119694e-06,1.43945531658201e-05,2.27584100057669e-05
4.60484048730327e-06,2.92350611377057e-06,1.26992276073277e-05,2.02275742084016e-05
3.19175358129189e-05,2.11429788531157e-05,3.54547311865975e-05,8.85152458526321e-05
0.000102404816370345,0.000224821761629924,7.12517783089539e-05,0.000398478356309223
1.42554157246614e-05,6.8806964608572e-06,2.06634594837384e-05,4.17995716692569e-05
2.23129812700761e-05,1.52653132141954e-05,4.87201747646413e-05,8.62984692489128e-05
8.32990763733316e-06,4.69611146564204e-06,1.39164292578612e-05,2.69424483608364e-05
6.53441642223891e-06,4.48415780728979e-06,1.34861467339502e-05,2.45047209634789e-05
6.93258945720471e-06,4.70277708886521e-06,1.54894862315866e-05,2.71248527776566e-05
1.15475438687807e-05,5.73891468400257e-06,1.73446524177983e-05,3.46311109705815e-05
3.87948912275618e-06,3.00176516166613e-06,1.21675678577141e-05,1.90488221421364e-05
3.84300107079377e-06,2.89002520958141e-06,1.17002473425612e-05,1.84332736229364e-05
3.90803164178377e-06,3.1363392944053e-06,1.2732269603628e-05,1.9776640539817e-05
4.05986704823329e-06,3.23482249725756e-06,1.2123833322049e-05,1.94185228675399e-05
3.92155521012837e-06,2.95837166409532e-06,1.22060220209977e-05,1.90859488952214e-05
3.98147445692265e-06,3.09587121573733e-06,1.22731160769283e-05,1.93504617495883e-05
4.24513682711048e-06,3.10256336765447e-06,1.24731106375049e-05,1.98208108322699e-05
4.0668792375954e-06,3.23202095305415e-06,1.228736810762e-05,1.95862682982695e-05
4.30370977880276e-06,3.1741785035783e-06,1.2715156548919e-05,2.01930448313001e-05
4.06241414706794e-06,3.2049665256552e-06,1.21988005061251e-05,1.94661811788483e-05
4.14118520841576e-06,3.3301618474978e-06,1.2485424551906e-05,1.99567716078196e-05
7.79499593121279e-06,6.1567838760798e-06,1.56255399394167e-05,2.95773197467093e-05
4.05104718248618e-06,3.15042215467144e-06,1.22376840641045e-05,1.94391534012621e-05
4.13330500243412e-05,6.66706481575673e-05,4.21743587943043e-05,0.000150178056976213
5.29385410916963e-06,3.64828510126046e-06,1.45964382701585e-05,2.35385774805886e-05
5.65679850335797e-05,3.55223389896465e-05,4.38933172154611e-05,0.000135983641238687
4.47692730529935e-06,3.43157743145798e-06,1.31311280819526e-05,2.103963281871e-05
4.75307439535002e-06,3.51690103930288e-06,1.46266812112935e-05,2.28966566459464e-05
4.44198335662672e-06,3.34911219764444e-06,1.26592424961224e-05,2.04503380503936e-05
4.55229992435282e-06,3.19598264996461e-06,1.22332901709263e-05,1.99815727452437e-05
4.84199031383017e-06,3.29009522983901e-06,1.34683488819362e-05,2.16004344256054e-05
4.70779064603549e-06,3.20580981043047e-06,1.22349418482062e-05,2.01485423046722e-05
2.29258599236712e-05,3.17165128566261e-05,5.55322114218039e-05,0.000110174584202101
1.2995408737653e-05,7.65784529657635e-06,2.10860571783097e-05,4.1739311212539e-05
9.7136566202771e-06,7.53271171079194e-06,1.92670902841986e-05,3.65134586152676e-05
4.59119318971522e-06,3.23746693831156e-06,1.33011020624657e-05,2.11297621904925e-05
4.39628736865484e-06,3.60051962640447e-06,1.4919491770288e-05,2.29162987653474e-05
4.2693084873648e-06,3.44763566688605e-06,1.5017182181746e-05,2.27341263359969e-05
4.21487853120404e-06,2.95449260764373e-06,1.22718326173828e-05,1.94412037562306e-05
3.9256810768841e-06,2.95178170414876e-06,1.32241502908804e-05,2.01016130719132e-05
9.58835983004073e-06,5.28560838316738e-06,1.69133058167368e-05,3.17872740299449e-05
6.45255286307598e-06,4.69121446697881e-06,1.59904446394875e-05,2.71342119695423e-05
3.6175540156988e-06,2.88191765639215e-06,1.20062215179138e-05,1.85056931900047e-05
3.75165280568198e-06,2.88315204297346e-06,1.29476152634002e-05,1.95824201120556e-05
4.24029077585424e-06,3.31087241927459e-06,1.50308231241655e-05,2.25819863192943e-05
3.85583696609025e-06,3.03112838656533e-06,1.17273878407322e-05,1.86143531933878e-05
5.09773837374708e-06,3.08792467527151e-06,1.17931049604749e-05,1.99787680094935e-05
2.48666097077301e-05,1.05217053659858e-05,2.67700186467972e-05,6.21583337205131e-05
2.16801555056425e-05,1.24474984987872e-05,2.96426187754189e-05,6.37702727798486e-05
1.34172697397032e-05,8.19290013998713e-06,1.86760945080587e-05,4.0286264387749e-05
2.91055448761204e-05,4.04481935372074e-05,4.21779339205261e-05,0.000111731672333854
9.82079779486971e-06,6.81344202854663e-06,1.85200919949445e-05,3.51543318183608e-05
4.78146918622064e-06,3.88895067168727e-06,1.30207205490448e-05,2.16911404069527e-05
5.41338620973152e-06,3.65778003983089e-06,1.30068742286312e-05,2.20780404781936e-05
4.98473609942786e-06,3.27215544381607e-06,1.28298545196467e-05,2.10867460628906e-05
8.10781186779731e-06,4.85790363286308e-06,1.7699022055971e-05,3.06647375566314e-05
1.50942435601105e-05,1.57200671410329e-05,3.12983719180052e-05,6.21126826191487e-05
6.89337348027267e-06,5.12764304549612e-06,1.32890201309056e-05,2.53100366566744e-05
8.54694998665153e-06,5.64926097805439e-06,1.49259170155354e-05,2.91221279802414e-05
6.88562692003646e-06,4.50349629619465e-06,1.27746596103513e-05,2.41637828265824e-05
5.86582271435196e-06,3.59941520503732e-06,1.03251635288249e-05,1.97904014482142e-05
5.82722011500132e-06,4.57558595356978e-06,1.18769809970821e-05,2.22797870656532e-05
5.08016290150371e-06,6.17601393492605e-06,1.28096593140571e-05,2.40658361504868e-05
6.37700939392916e-06,4.91574869649065e-06,1.24141017282738e-05,2.37068598186936e-05
6.27339457895346e-06,4.4920916015683e-06,1.25193927731096e-05,2.32848789536313e-05
7.75805926798518e-06,6.42153633912032e-06,1.49068050763484e-05,2.90864006834538e-05
8.72864293113665e-06,8.65738423662136e-06,1.57005549085569e-05,3.30865820763149e-05
7.22313269744894e-06,4.14514825266155e-06,1.20674347042985e-05,2.3435715654409e-05
8.52995048765137e-06,4.8992465184629e-06,1.43915166695305e-05,2.78207136756448e-05
6.66227035041559e-06,4.16420626453336e-06,1.13017428630936e-05,2.21282194780425e-05
8.11767741389886e-06,4.53682810296381e-06,1.3869464402252e-05,2.65239699191147e-05
5.80546368713935e-06,4.23482227700369e-06,1.11804635612549e-05,2.12207495253979e-05
9.26538400923224e-06,9.90413314326211e-06,1.74142626807774e-05,3.65837798332718e-05
1.86012723293774e-05,1.24259329374505e-05,2.47609454250166e-05,5.57881506918445e-05
9.49556266381737e-06,6.74763460085098e-06,1.75871178120266e-05,3.38303150766949e-05
9.13354138546816e-06,7.26881003243349e-06,1.52260059820848e-05,3.16283573999864e-05
7.35940728500167e-06,9.05698668596363e-06,1.57223828652156e-05,3.21387768361809e-05
6.38393805371006e-06,4.4618738741124e-06,1.52122166516193e-05,2.60580285794417e-05
7.7259444276563e-06,9.10241031731981e-06,1.7528115754962e-05,3.43564704999381e-05
5.51771426899866e-06,6.06116662784425e-06,1.42873629257297e-05,2.58662438225726e-05
5.72427669410038e-06,4.56369302755999e-06,1.21613704241861e-05,2.24493401458464e-05
8.56466006877225e-06,6.41515895291127e-06,1.5927819752843e-05,3.09076387745265e-05
5.88942981512546e-05,1.83854341150699e-05,5.96283118536085e-05,0.000136908044119933
3.40911809219889e-05,1.61158833125815e-05,3.81178161902076e-05,8.8324880424778e-05
8.00452766458899e-06,5.97979817358954e-06,1.70160858198987e-05,3.10004116580772e-05
6.29632902590763e-06,5.14281874986351e-06,1.50510715908828e-05,2.64902193666539e-05
5.27048307598288e-06,4.0828654141391e-06,1.19584631030561e-05,2.13118115931781e-05
6.78483593069887e-06,9.07733920686954e-06,1.5144837292699e-05,3.10070124302675e-05
5.65554899900369e-06,4.94203871301446e-06,1.39326875380981e-05,2.45302752501163e-05
5.76802950690795e-06,4.5994873543776e-06,1.31416007456608e-05,2.35091176069463e-05
4.75717754077492e-06,3.69520355487423e-06,1.23241838315598e-05,2.07765649272089e-05
5.87433137487372e-06,4.46771518983615e-06,1.38134818860988e-05,2.41555284508087e-05
5.40333401370852e-06,4.28280236749973e-06,1.26209044081549e-05,2.23070407893631e-05
6.73769371177008e-06,5.42770817992673e-06,1.23876067821123e-05,2.45530086738091e-05
1.36680103650164e-05,8.69412491386893e-06,1.65533432332484e-05,3.89154785121337e-05
5.07979432614982e-06,4.56274511224046e-06,1.16603628191249e-05,2.13029022575152e-05
8.44548793332173e-06,1.0159660778987e-05,1.72898721630852e-05,3.5895020875394e-05
6.78324640687058e-06,5.90781178151295e-06,1.41034581782046e-05,2.67945163665881e-05
5.70014883906096e-06,4.8934951892529e-06,1.47277526302926e-05,2.53213966586064e-05
5.88180762139568e-06,4.18723362712161e-06,1.22558553678728e-05,2.23248966163901e-05
8.86425625532312e-06,6.49352749726392e-06,1.62113180789742e-05,3.15691018315612e-05
5.30244974889366e-06,4.16421414014484e-06,1.22852267222478e-05,2.17518906112863e-05
5.32323316173895e-06,3.72708389807228e-06,1.17519656888552e-05,2.08022827486664e-05
4.69985100128198e-06,3.5697395935105e-06,1.13818285801265e-05,1.9651419174919e-05
5.9802900661206e-06,5.61961092841941e-06,1.39089383512246e-05,2.55088393457647e-05
6.07739202786698e-06,4.66630069965531e-06,1.42384947088526e-05,2.49821874363749e-05
5.9326413530449e-06,4.81408461248811e-06,1.30300872928903e-05,2.37768132584234e-05
6.57534595393602e-06,6.0735817185313e-06,1.29468264762679e-05,2.55957541487352e-05
4.19259641186015e-06,3.145889179464e-06,1.09327614583872e-05,1.82712470497114e-05
4.4400191687627e-06,3.82822812378857e-06,1.19824683863211e-05,2.02507156788723e-05
1.03940546139303e-05,1.19588061973396e-05,1.59947573775722e-05,3.83476181888422e-05
7.36837489365098e-06,4.45936948782274e-06,1.35858483613957e-05,2.54135927428694e-05
5.94228559271451e-06,3.39747411296853e-06,1.05537722712694e-05,1.98935319769525e-05
1.56944379663803e-05,1.2406353489863e-05,1.76462620751234e-05,4.57470535313668e-05
1.30354392686225e-05,9.13392330477331e-06,1.97692752764244e-05,4.19386378498203e-05
5.66229628832722e-06,4.89552879446576e-06,1.2103022674849e-05,2.2660847757642e-05
1.67209761002215e-05,1.12073297376587e-05,1.70728726492692e-05,4.50011784871494e-05
2.01151591389755e-05,1.42057712725008e-05,2.91533880763029e-05,6.34743184877793e-05
1.59350965122922e-05,1.08136079446198e-05,3.10722643269398e-05,5.78209687838518e-05
1.2383445928024e-05,7.73428016224975e-06,2.17716511786406e-05,4.18893772689143e-05
4.6845060679841e-06,3.41289945390558e-06,1.07441562833318e-05,1.88415618052215e-05
1.26839960624934e-05,7.32450257173806e-06,1.55532472627485e-05,3.556174589698e-05
9.16006400640886e-06,1.10931002413977e-05,1.83448121127018e-05,3.85979763605084e-05
3.37440449678545e-06,2.92599773757123e-06,9.27939987941599e-06,1.55798021137727e-05
4.53071828307678e-06,4.05935796249887e-06,1.05365035778775e-05,1.91265798234532e-05
5.26917459967163e-06,5.54339658338709e-06,1.28426759662584e-05,2.36552471493171e-05
4.55564319778875e-06,3.83610629136523e-06,1.12574023164346e-05,1.96491518055886e-05
6.20646845531018e-06,5.11795456571117e-06,1.1901886803399e-05,2.32263098244203e-05
1.46678910608254e-05,1.4979284194265e-05,2.51009201350026e-05,5.4748095390093e-05
1.6201456343176e-05,1.10865059369777e-05,1.91844253635437e-05,4.64723876436974e-05
1.19244098579293e-05,7.51258013795719e-06,1.52034845375408e-05,3.46404745334273e-05
2.21296161261591e-05,1.07518635973188e-05,2.16399018840877e-05,5.45213816075656e-05
2.04692548511348e-05,8.96537519676424e-06,2.92224529910344e-05,5.86570830389334e-05
2.49142422292346e-05,1.25896458685444e-05,2.89190526157368e-05,6.64229407135159e-05
2.42642382455861e-05,7.90315011414621e-06,3.02087373487541e-05,6.23761257084864e-05
1.21154132641713e-05,1.01354128884719e-05,1.86576155908446e-05,4.09084417434877e-05
3.8827332816427e-05,3.31071466661678e-05,4.46139761120208e-05,0.000116548455594616
8.85357094101821e-06,5.33992521152712e-06,1.42063285021923e-05,2.83998246547376e-05
1.13475219389948e-05,7.95471589812566e-06,1.6128797683061e-05,3.54310355201814e-05
6.58427268853468e-06,4.47371056829634e-06,1.17252244154161e-05,2.27832076722471e-05
6.7561605490307e-05,8.80280149608248e-05,0.000205626722102523,0.000361216342553654
1.04680698138795e-05,8.77635190245087e-06,1.74752520212884e-05,3.67196737376188e-05
1.78806491801994e-05,1.67818648984208e-05,2.44627922268085e-05,5.91253063054288e-05
4.12826394908752e-06,3.44016141771652e-06,1.13086053840641e-05,1.88770307508681e-05
3.66605621820223e-06,3.04875783569915e-06,1.03044520010281e-05,1.70192660549295e-05
3.63711991075597e-06,2.99260145981731e-06,1.04671827708795e-05,1.70969041414528e-05
5.58617568743882e-06,3.82427103851056e-06,1.11345383886895e-05,2.05449851146388e-05
9.10237689539196e-06,4.18218160832272e-06,1.16584164133292e-05,2.49429749170439e-05
8.08979881963507e-06,4.36106278908905e-06,1.26115527626908e-05,2.50624143714149e-05
8.70132115752637e-06,6.36641833443426e-06,1.40306928365373e-05,2.90984323284979e-05
1.0084493038817e-05,6.43407523057328e-06,1.52315889959422e-05,3.17501572653325e-05
9.01907202972953e-06,5.88855985486526e-06,1.4181207738687e-05,2.90888396232818e-05
1.12020114143968e-05,6.85960332224249e-06,1.49883619219292e-05,3.30499766585685e-05
8.12246146323607e-06,4.83789847544198e-06,1.23058838010451e-05,2.52662437397231e-05
1.00737310438799e-05,5.95284938666924e-06,1.42190404380636e-05,3.02456208686127e-05
1.1649698874574e-05,6.54340135796116e-06,1.52597011782779e-05,3.34528014108131e-05
1.86093408698919e-05,1.07617498550085e-05,1.68788693435781e-05,4.62499600684784e-05
1.2270953543591e-05,7.44380952042946e-06,1.56635120598298e-05,3.53782751238502e-05
1.85030677384935e-05,1.03567161965238e-05,2.01072456849379e-05,4.89670296199552e-05
1.30534701460391e-05,7.8930878398529e-06,1.87470963684518e-05,3.96936543543437e-05
6.83232782932494e-06,3.90989665457312e-06,1.19601047274895e-05,2.27023292113876e-05
1.08965341746755e-05,6.38124270318632e-06,1.50901899972258e-05,3.23679668750876e-05
4.32490624586088e-06,3.55494963057836e-06,1.19420236951033e-05,1.98218795715426e-05
4.51014251423421e-06,3.20746301260724e-06,1.08584697031954e-05,1.85760752300369e-05
3.97393462836347e-06,3.07854411639893e-06,1.02828597337653e-05,1.73353384785277e-05
4.89590675956575e-06,3.29930401181296e-06,1.05806200772738e-05,1.87758308486525e-05
5.45412996350843e-06,3.9611229423863e-06,1.11394782415286e-05,2.05547311474234e-05
4.84361233598892e-06,3.69931394578745e-06,1.06597643610676e-05,1.9202690642844e-05
1.84493374445285e-05,1.25387833183292e-05,2.04584864241087e-05,5.14466071869663e-05
1.11016804646205e-05,7.05582554795281e-06,1.73322046434083e-05,3.54897106559815e-05
8.56228748966586e-06,5.87797856252674e-06,1.26591759165412e-05,2.70994419687338e-05
1.40475602207905e-05,8.72218777349178e-06,1.75954570851269e-05,4.03652050794092e-05
9.26493820828566e-06,6.24781643128887e-06,1.38461498177091e-05,2.93589044572837e-05
6.21144026588398e-06,4.53429309946784e-06,1.19549068448995e-05,2.27006402102513e-05
6.97604049777153e-06,4.14418960677241e-06,1.10975647497845e-05,2.22177948543284e-05
5.48669598993909e-06,3.86463762342938e-06,1.00887737950997e-05,1.94401074084682e-05
6.52881959640066e-06,3.98316389491605e-06,1.08270142967555e-05,2.13389977880722e-05
5.84221440574676e-06,4.0473281607469e-06,1.06469639004925e-05,2.05365064669862e-05
5.11346006324564e-06,3.64873552214707e-06,9.93834155258078e-06,1.87005371379735e-05
4.37486753998536e-06,3.54787119557931e-06,1.04547588304766e-05,1.83774975660413e-05
4.23155746117673e-06,3.46005120083655e-06,9.88996755269316e-06,1.75815762147064e-05
5.34913380122799e-06,3.75259988684492e-06,1.05984076603756e-05,1.97001413484485e-05
2.20792266532396e-05,9.69121963939479e-06,1.79205146359045e-05,4.96909609285389e-05
6.1296822296599e-06,4.05349162866948e-06,1.12510941580619e-05,2.14342680163913e-05
5.53198202603875e-06,4.14182708209103e-06,1.09019732291669e-05,2.05757823372966e-05
2.09015978679859e-05,1.64322144930355e-05,2.07916719069498e-05,5.81254842679711e-05
1.33770631823861e-05,9.29353472033049e-06,1.79631230349012e-05,4.06337209376178e-05
1.25077618113745e-05,6.55203773781045e-06,1.52279215143523e-05,3.42877210635372e-05
3.75432223230874e-06,4.29584297661709e-06,1.05946503016952e-05,1.8644815510621e-05
1.59784478846068e-05,2.07928485065052e-05,2.1282392845154e-05,5.80536892362661e-05
6.43892104806756e-06,7.42796789177746e-06,2.02878418313624e-05,3.41547307712074e-05
3.28898803269128e-06,3.1005768955518e-06,8.72514600099851e-06,1.51147109292416e-05
3.63172126603671e-06,3.03403833243915e-06,8.08624097906138e-06,1.47520005775372e-05
4.31025469833164e-06,3.59220935452368e-06,8.71020321050155e-06,1.66126672633569e-05
3.71329403140921e-05,3.46299828535423e-05,5.10183182710787e-05,0.000122781241438713
8.45662803163299e-06,8.89507490963957e-06,2.24804509734991e-05,3.98321539147716e-05
3.66264458736317e-06,2.92084212248188e-06,9.42223778741452e-06,1.60057244972596e-05
6.51066502277273e-06,7.07457697752777e-06,1.8031559095775e-05,3.16168010960755e-05
4.8637627118698e-06,3.17286621804542e-06,8.79116287233764e-06,1.68277918022529e-05
5.60290149388458e-06,6.32921189023639e-06,1.40937270500076e-05,2.60258404341286e-05
6.02734843742829e-06,4.88775563745263e-06,1.23003988949695e-05,2.32155029698504e-05
3.53675908803651e-06,2.78705109754625e-06,8.41496921129897e-06,1.47387793968817e-05
3.1399778093432e-06,2.84194945176404e-06,8.19745497982541e-06,1.41793822409326e-05
6.07253366830197e-06,6.44075482520345e-06,1.82974790968826e-05,3.0810767590388e-05
3.83223232453921e-06,2.78470068495038e-06,8.79753991363304e-06,1.54144729231226e-05
3.67526860664177e-05,6.01854785850941e-05,0.000116751585868102,0.000213689750519613
2.27603836412753e-05,3.39684600624258e-05,5.33516592695931e-05,0.000110080502973294
7.71000836595585e-06,9.13045094149056e-06,1.85944574824532e-05,3.54349167898996e-05
6.04702541007947e-06,5.6668655651208e-06,1.79378489380188e-05,2.9651739913219e-05
3.12301442335144e-06,2.59876663526824e-06,9.04106341106041e-06,1.47628444696801e-05
3.06907718594787e-06,2.57600680239559e-06,8.8501316623289e-06,1.44952156506724e-05
3.00173764668246e-06,2.53976129542765e-06,8.23276414693723e-06,1.37742630890473e-05
7.65555636675225e-06,7.91796671311759e-06,2.08216242270004e-05,3.63951473068702e-05
6.57237517569611e-06,5.15851879822189e-06,1.93777854659388e-05,3.11086794398568e-05
8.25856180174727e-06,6.60321822211117e-06,1.78198547513777e-05,3.26816347752361e-05
4.47415123917194e-06,3.13607678215078e-06,9.85707764035968e-06,1.74673056616824e-05
6.39958652481153e-06,6.63579090657568e-06,1.95620062026658e-05,3.2597383634053e-05
4.5000940815319e-06,6.44435919442803e-06,2.26092556627452e-05,3.35537089387051e-05
9.22261013783598e-06,1.36534559578928e-05,2.30551268299607e-05,4.59311929256895e-05
6.0157705814811e-06,5.43816592632102e-06,1.67947635443313e-05,2.82487000521334e-05
9.72169067702064e-06,8.8487679377577e-06,2.51791743837519e-05,4.37496329985302e-05
3.66263896707382e-06,3.68759184522974e-06,9.4872164526964e-06,1.6837447265e-05
1.25610874079379e-05,2.61100269538141e-05,3.7646361674608e-05,7.631747603636e-05
1.71760907135669e-05,9.23209998088673e-06,1.9558769255538e-05,4.59669599499916e-05
8.65627979413221e-06,1.85871753912471e-05,2.04811362513743e-05,4.77245914367536e-05
9.4773074232136e-06,1.32364099322552e-05,2.30849135199202e-05,4.57986308753889e-05
7.15826368251456e-06,6.74577218055976e-06,1.71371671849928e-05,3.10412030480671e-05
4.50341655705061e-06,5.32840755551252e-06,1.05156452018817e-05,2.03474693144448e-05
1.78751831783542e-05,6.8015098507496e-05,5.1796204424313e-05,0.000137686486110163
9.49948090239942e-06,3.42117739479546e-05,3.0458165205771e-05,7.4169420056125e-05
6.43891694493456e-06,1.95832598109195e-05,2.14123273147314e-05,4.74345040705854e-05
1.68435862239253e-05,1.53157465984052e-05,2.59079679136401e-05,5.80673007359706e-05
1.00567861066128e-05,9.1838598983925e-06,3.08684329216867e-05,5.0109078926692e-05
5.91449933727544e-05,4.25966023634809e-05,6.02167480247703e-05,0.000161958343761006
1.93294416608478e-05,7.70776976961177e-06,2.3857180426267e-05,5.08943918567266e-05
8.76587152371286e-06,4.00759837681464e-06,1.24444200556442e-05,2.52178899561717e-05
4.85687006745391e-05,2.84618229531263e-05,4.13012238281515e-05,0.000118331747455817
1.06220550988144e-05,1.1212463316243e-05,2.26113695705849e-05,4.44458879856423e-05
5.15801313240085e-06,5.60187478249565e-06,1.63876297079486e-05,2.71475176228451e-05
5.3471289090137e-06,5.35150806041412e-06,1.72652060219339e-05,2.79638429913617e-05
3.85289192873792e-06,3.10544548795859e-06,9.10296195205385e-06,1.60612993687504e-05
4.0341118457781e-06,4.22996434833405e-06,1.15115682955344e-05,1.97756444896465e-05
3.52364988364113e-06,2.99837916983024e-06,8.70186351677799e-06,1.52238925702494e-05
1.49355378545514e-05,1.5093492698495e-05,2.85679345188934e-05,5.85969650719398e-05
6.47834838604918e-06,6.62182681756232e-06,1.91035228958941e-05,3.22036980995056e-05
6.05118023425358e-06,6.68958011631654e-06,2.45074665312933e-05,3.72482268818634e-05
5.71005985777268e-06,4.58239692425031e-06,1.51287974234011e-05,2.5421254205424e-05
8.66296705417523e-06,7.51522654385496e-06,2.21505767212324e-05,3.83287703192626e-05
9.387111138945e-06,6.26635131065842e-06,1.49173154903061e-05,3.05707779399095e-05
5.76645398187753e-06,6.87110340867668e-06,1.65118997390443e-05,2.91494571295986e-05
1.50841885822045e-05,8.45570934013498e-06,1.6829413848382e-05,4.03693117707215e-05
1.32796146174235e-05,1.32852879301567e-05,3.92393462702852e-05,6.58042488178655e-05
9.60754314857489e-06,8.67397238988509e-06,3.12609454603309e-05,4.95424609987908e-05
1.20210293969096e-05,1.13466017084872e-05,1.89989065897383e-05,4.23665376951351e-05
5.11570144919199e-06,4.88237228352846e-06,1.21359151370504e-05,2.21339888697709e-05
1.21003641947065e-05,9.42278151348806e-06,1.81184645100811e-05,3.96416102182756e-05
6.76922097586019e-06,6.39122165495291e-06,1.3367978936254e-05,2.65284215670671e-05
7.04602494712497e-06,9.2429083121443e-06,1.70647484375553e-05,3.33536816968245e-05
5.36751593923012e-06,4.84241451981188e-06,1.35192145554437e-05,2.37291450144857e-05
3.92244009584679e-06,4.03589618012537e-06,1.03847867344809e-05,1.8343123010453e-05
4.60155698675463e-06,5.28079540866406e-06,1.43881605559903e-05,2.4270512951409e-05
6.33786949050033e-06,7.32203513385505e-06,1.9207394273414e-05,3.28672988977694e-05
3.12528701265646e-06,2.83106569014386e-06,8.55321328585415e-06,1.45095659886545e-05
3.64701195122508e-06,3.85074732377683e-06,9.64283198678227e-06,1.71405912617842e-05
1.02107146667916e-05,8.89622183621039e-06,1.70204868742575e-05,3.61274233772595e-05
4.47450037839199e-06,3.88999871915843e-06,1.13173920182509e-05,1.96818911158013e-05
6.91455582696646e-06,8.92788251498564e-06,1.7608687630326e-05,3.34511259722781e-05
4.55386071553141e-06,4.39548709981933e-06,1.04323975578195e-05,1.93817453731702e-05
5.11601786500253e-06,4.2410586956901e-06,1.08613134106704e-05,2.0218389971363e-05
2.29288566610379e-05,1.54503132249839e-05,3.02972811774474e-05,6.86764510634692e-05
8.23267330852591e-06,9.14344032996845e-06,1.81293293440152e-05,3.55054429825095e-05
4.1238774108069e-06,4.02526962589662e-06,1.50172747715266e-05,2.31664218082301e-05
2.46229320746589e-05,1.32509849509753e-05,3.51383729615228e-05,7.30122899871571e-05
1.55462685353613e-05,6.89925793183028e-06,2.02529965579496e-05,4.26985230251412e-05
2.22915045139322e-05,1.74662906442196e-05,2.64234824747162e-05,6.6181277632868e-05
1.31924956821558e-05,1.51927448283456e-05,2.05454193513268e-05,4.89306598618282e-05
4.56284584614223e-06,3.08489437205601e-06,1.16405397452738e-05,1.9288279963472e-05
5.92178752966293e-06,6.81722587154776e-06,1.44252381018809e-05,2.71642515030916e-05
3.88076782137633e-06,3.91769141754215e-06,1.10457543654766e-05,1.88442136043951e-05
3.64658574782325e-05,3.23872898288397e-05,5.75083864528317e-05,0.000126361533759904
3.12418089026431e-05,2.70373903251207e-05,3.53388330700372e-05,9.3618032297801e-05
9.69209282672991e-06,1.8100542538614e-05,2.27219993291829e-05,5.05146346945268e-05
1.08506917482974e-05,1.39461031166518e-05,2.34235052120591e-05,4.82203000770083e-05
5.63084524407055e-06,7.25248953087134e-06,1.16954551085299e-05,2.45787898834718e-05
1.16447622021966e-05,2.36853597754921e-05,2.16250731518118e-05,5.69551951295006e-05
8.6130789421332e-06,1.03820307913976e-05,1.46306221582364e-05,3.36257318917673e-05
8.22670754219717e-06,1.0945873372252e-05,1.40859134446145e-05,3.32584943590636e-05
3.23170816475989e-06,2.63785377583543e-06,8.29773659156482e-06,1.41672985321601e-05
3.21555290788568e-06,2.75772788499762e-06,8.13963589399612e-06,1.41129166868794e-05
3.04982237076849e-06,2.65422080033593e-06,7.91432650835483e-06,1.36183696794592e-05
3.03184711785653e-06,2.70069217415349e-06,8.36679649415434e-06,1.40993357861644e-05
3.10528016772581e-06,2.63967714368097e-06,8.45927337007117e-06,1.4204230681478e-05
2.96029313574957e-06,2.8541794065589e-06,7.75846717018794e-06,1.35729397124964e-05
3.19795127932644e-06,2.73158810259886e-06,7.92494668021e-06,1.38544860621353e-05
2.95551928007051e-06,2.60336257541015e-06,8.00420381863347e-06,1.35630856741141e-05
3.11563559533935e-06,2.71309584480232e-06,8.10222900720112e-06,1.39309604473428e-05
3.19226381364687e-06,2.68461799328339e-06,8.10331875988805e-06,1.39802005668183e-05
2.99917546154443e-06,2.63219107216318e-06,7.92026376064428e-06,1.35516302943519e-05
3.0245576528653e-06,2.70651651491119e-06,7.78205480821592e-06,1.35131289759924e-05
3.08392578298022e-06,2.69790744803568e-06,7.7931144460886e-06,1.35749476771045e-05
3.36898719845452e-06,2.75318822016575e-06,8.64240176040792e-06,1.47645771790282e-05
6.24451335872736e-06,6.2490072749944e-06,1.21991080618486e-05,2.46926286955704e-05
4.03128826979362e-06,3.16124407637608e-06,1.12257790750043e-05,1.8418311421174e-05
3.10552377933571e-06,2.60720032750865e-06,8.19448349214466e-06,1.3907207598989e-05
2.95010559379037e-06,2.50824363235549e-06,7.29539688622457e-06,1.27537461123704e-05
3.21092886403345e-06,2.65046506799437e-06,7.80395270031663e-06,1.36653466323445e-05
3.09023320999186e-06,2.63606376863994e-06,8.29898903925673e-06,1.40252860178885e-05
3.3900685652382e-06,2.70994860050975e-06,8.72700492450101e-06,1.4827022090249e-05
3.06309591170452e-06,2.66631407009989e-06,7.94342539466172e-06,1.36728353764661e-05
3.02024765912124e-06,2.63536080512206e-06,8.04314801369119e-06,1.36987564779345e-05
3.18894168427029e-06,2.69235016143896e-06,8.23118572842834e-06,1.41124775741376e-05
3.08450353387271e-06,2.67841737737286e-06,8.14495452502481e-06,1.39078754362704e-05
3.14849887014504e-06,2.8242499180843e-06,7.99303058433479e-06,1.39657793725641e-05
3.28572280236264e-06,2.81038229202648e-06,8.42769220353899e-06,1.45237972979281e-05
3.94466258069461e-06,4.03856811141269e-06,1.21429122811635e-05,2.01261429732708e-05
2.60376486932968e-05,1.46518707239238e-05,2.38837547377898e-05,6.45732741550103e-05
3.1556075067184e-05,4.00442167690657e-05,4.51045744222565e-05,0.000116704866258506
8.94557989922998e-06,6.9114980817018e-06,1.577417484138e-05,3.16312528223117e-05
8.08527142031349e-06,4.37746620812077e-06,1.2259006747688e-05,2.47217443761222e-05
6.34353737300436e-06,4.25496434473213e-06,1.17993626166431e-05,2.23978643343796e-05
1.16616162798294e-05,5.65844287136018e-06,1.56548465069302e-05,3.29749056581198e-05
6.55413319906116e-06,3.46215397423405e-06,9.96644933010467e-06,1.99827365033999e-05
5.13769646369339e-06,3.3995973553002e-06,9.39728750524209e-06,1.79345813242357e-05
4.43560356747544e-06,3.32269183111517e-06,8.5578479669312e-06,1.63161433655218e-05
5.13633517118911e-06,3.37364201881711e-06,1.02411866172501e-05,1.87511638072564e-05
4.63951524957233e-06,3.22279045907494e-06,9.24391548229002e-06,1.71062211909373e-05
5.83845585931132e-06,3.33908500037094e-06,9.0881283510399e-06,1.82656692107222e-05
1.3745854557268e-05,1.00781872366312e-05,1.70859360110703e-05,4.09099778049695e-05
1.11630207716649e-05,8.73416794123355e-06,1.45571594417187e-05,3.44543481546171e-05
1.38805973199217e-05,8.76575981066723e-06,1.66045440727738e-05,3.92509012033627e-05
4.68336986520724e-06,3.51653418155862e-06,1.02984668496044e-05,1.84983708963703e-05
3.87106144561033e-06,2.83855179075627e-06,8.76429698148891e-06,1.54739102178555e-05
3.35110316655367e-06,2.96455074467064e-06,9.01444362195127e-06,1.53300975331756e-05
3.09970052628349e-05,1.64713083536285e-05,2.76403603907057e-05,7.51086740071691e-05
2.03738297582289e-05,1.88149422667292e-05,2.35602660764803e-05,6.27490381014384e-05
4.36295044214368e-06,4.13950407352119e-06,8.90078274927476e-06,1.74032372649396e-05
3.73447070057518e-05,2.48879697901786e-05,3.27517215342662e-05,9.49843983301966e-05
6.28465705759879e-06,7.49697803612192e-06,1.51039586085769e-05,2.88855937022976e-05
1.56421535372003e-05,9.80593986450873e-06,1.98803651882695e-05,4.53284585899785e-05
8.42702633185621e-06,8.06442275132215e-06,3.24370939524064e-05,4.89285430355848e-05
1.09556714896021e-05,6.07441210702463e-06,1.52305804351889e-05,3.22606640318156e-05
5.19657684317649e-06,4.00060571521043e-06,1.12820606227707e-05,2.04792431811576e-05
3.58624601173682e-06,2.90290514128452e-06,8.37678574409516e-06,1.48659368971165e-05
4.84230082463753e-06,3.16252698690183e-06,9.94642126288256e-06,1.79512490744219e-05
3.78222101498466e-06,3.06184126296431e-06,9.36317594302926e-06,1.62072382209782e-05
4.5841823858603e-06,3.3182459082044e-06,1.04068010174077e-05,1.83092293114724e-05
3.58455877061872e-06,3.06771039955822e-06,8.91862266074247e-06,1.55708918309194e-05
3.58604819702134e-06,3.10670699002155e-06,8.68182118127345e-06,1.53745763683163e-05
4.29738267457686e-06,3.46961427865734e-06,9.27060291676117e-06,1.70375998699954e-05
4.22419746148273e-06,3.32495041997113e-06,9.15260366145103e-06,1.67017515429049e-05
4.76986463098197e-06,3.82317160248827e-06,1.19812275147605e-05,2.05742637482307e-05
4.48395537568825e-06,4.97162393463154e-06,1.50086359395631e-05,2.44642152498829e-05
3.50711744956293e-06,2.93865391520878e-06,8.84646242083648e-06,1.52922337856082e-05
3.92981200063214e-06,3.73027792575239e-06,9.24033829625352e-06,1.69004282226381e-05
3.70243030060181e-06,2.81330072358454e-06,8.83399878993458e-06,1.53497298141209e-05
3.14974259845911e-06,2.72421044077633e-06,8.08024177711412e-06,1.39541948163496e-05
3.78046894203373e-06,2.84809084020129e-06,9.00855984287932e-06,1.56371196251143e-05
4.57729302216851e-06,3.64766326110883e-06,9.2209704152682e-06,1.74459266985455e-05
4.39365085080813e-06,3.20976223340689e-06,9.00814116788832e-06,1.66115542521033e-05
4.56892679768274e-06,2.90324511069999e-06,8.86284557751766e-06,1.63350174859004e-05
3.26407955704369e-06,2.81262675592836e-06,7.93551241627028e-06,1.40122187292423e-05
3.4400757651772e-06,3.09794479319385e-06,8.64037996120418e-06,1.51784005195752e-05
4.90452655913137e-05,3.78860764668207e-05,7.47461650572443e-05,0.000161677507115379
6.25537991641815e-06,5.77046867355899e-06,1.82024804299865e-05,3.02283290199636e-05
2.36236472426061e-05,9.89197856195817e-06,2.08643227106301e-05,5.43799485151944e-05
8.43433994140464e-06,4.80752773926205e-06,1.25779674473987e-05,2.58198351280654e-05
4.75841234474209e-06,4.84814768189902e-06,1.08025185085631e-05,2.04090785352043e-05
7.2179263443534e-05,3.34400662285769e-05,4.15519712410062e-05,0.000147171300913117
9.50836479099591e-06,8.56514227773363e-06,1.53709341920287e-05,3.34444412607583e-05
8.49619112601139e-06,6.06481852623704e-06,1.33536924893771e-05,2.79147021416255e-05
9.19305290461614e-06,7.13506061968764e-06,1.46625575671784e-05,3.09906710914821e-05
6.2953388040931e-06,5.05962568404241e-06,1.22019291308814e-05,2.35568936190169e-05
5.26443341094565e-06,4.93251263408337e-06,1.08035289995345e-05,2.10004750445635e-05
4.91814200612421e-06,4.29699120766926e-06,1.00086503905119e-05,1.92237836043053e-05
6.80528340493053e-06,6.40788841485682e-06,1.32375616813888e-05,2.64507335011762e-05
2.88799377229546e-05,1.9539004554305e-05,3.84502351458792e-05,8.68691774231388e-05
3.21680152967258e-06,2.81960829469424e-06,8.88592793872157e-06,1.49223377630884e-05
3.58298001038386e-06,3.16671514533407e-06,9.35483007543127e-06,1.61045252311492e-05
3.52699555978246e-06,3.26720117668241e-06,9.17989976875499e-06,1.59740965052199e-05
3.52663995348486e-06,2.95723447552839e-06,8.79849956651103e-06,1.52823739955243e-05
4.29264434665518e-06,3.59155609433867e-06,1.12855211218475e-05,1.91697215628413e-05
3.84977108972443e-06,3.19353542308978e-06,9.77183575363922e-06,1.68151422664534e-05
4.70430797827482e-06,4.30096274390777e-06,1.06183995861903e-05,1.96236703083729e-05
8.91417881416647e-06,7.79467249972465e-06,1.4913993779099e-05,3.16228450929901e-05
5.42056765482701e-06,5.6254158596219e-06,1.24072981984314e-05,2.34532817128803e-05
1.41099209280056e-05,1.49478054350778e-05,2.2513779129799e-05,5.15715054928824e-05
3.23359936138811e-05,3.16001851270789e-05,3.31746261158011e-05,9.71108048567611e-05
5.77450701370728e-06,5.32559938593844e-06,1.56300475904734e-05,2.67301539901191e-05
9.7196948867914e-06,6.75085483743493e-06,1.47204834227345e-05,3.11910331469608e-05
4.30201645704727e-06,3.45889130851109e-06,1.02314051896971e-05,1.79923129552555e-05
7.61741913358971e-06,5.13335931412727e-06,1.22842790386841e-05,2.5035057486401e-05
4.28271572444157e-06,3.68244346826612e-06,1.1817363658108e-05,1.97825228508157e-05
5.22364248914886e-06,3.85310685924921e-06,1.17076682631445e-05,2.07844176115426e-05
2.21472280810615e-05,9.4860360574e-06,1.49827728972089e-05,4.66160370356703e-05
1.0286755058191e-05,1.07474476722344e-05,1.98435059628746e-05,4.08777086932999e-05
7.15265684598111e-06,5.66949376147376e-06,1.55145668532168e-05,2.83367174606716e-05
5.42476606979785e-06,4.60449098038796e-06,1.16333676256974e-05,2.16626246758832e-05
5.44966745802723e-06,4.08174157022214e-06,1.19956955543193e-05,2.15271045825687e-05
5.16750909175518e-06,3.47261434314751e-06,1.07735885291773e-05,1.941371196408e-05
4.95549077024752e-06,3.86562444236428e-06,1.24859213202125e-05,2.13070365328243e-05
4.75432970141297e-06,4.63529385330842e-06,1.50838645266869e-05,2.44734880814083e-05
9.35395195654113e-06,1.0260696253007e-05,2.29790924877089e-05,4.2593740697257e-05
2.08121601107971e-05,1.79819169062099e-05,2.5015938167098e-05,6.3810015184105e-05
6.18525108753142e-06,3.93421826314258e-06,1.23008080304893e-05,2.24202773811633e-05
6.40759526757954e-06,4.99598666314176e-06,1.55351770791821e-05,2.69387590099034e-05
5.00798351480663e-06,3.52801528514536e-06,1.14762014067399e-05,2.00122002066919e-05
4.93079840176319e-06,3.42296259515047e-06,1.04512891889667e-05,1.88050501858804e-05
5.69823890082942e-06,4.04937154851117e-06,1.13031855311632e-05,2.10507959805037e-05
5.69465180497952e-06,3.72853772982558e-06,1.14608853276595e-05,2.08840748624646e-05
8.88598442410195e-06,5.98810351816664e-06,1.57031349051032e-05,3.05772228473718e-05
2.39349538721788e-05,1.76711302834316e-05,3.31925917031613e-05,7.47986758587716e-05
1.82945469541937e-05,1.47206943128618e-05,2.63947688620685e-05,5.94100101291241e-05
1.88278739779414e-05,1.7966496985341e-05,2.43540205793335e-05,6.11483915426159e-05
5.69492718230405e-06,3.73659898920307e-06,1.13755128733075e-05,2.08070390448146e-05
6.31512459202265e-06,3.95493872713872e-06,1.26802520447553e-05,2.29503153639167e-05
8.71341170989076e-06,5.183127597431e-06,1.37007720026442e-05,2.7597311309966e-05
3.22189303405822e-05,2.56825443716819e-05,4.43633638404962e-05,0.00010226483855276
1.16147459292812e-05,1.42833615038234e-05,1.91940563455665e-05,4.50921637786712e-05
1.40344621350952e-05,1.51282136017234e-05,2.0539036402013e-05,4.97017121388315e-05
1.26680504217646e-05,8.54170182744377e-06,1.43180220368351e-05,3.55277742860434e-05
8.6022217818422e-06,8.25955481898965e-06,1.69440917460468e-05,3.38058683468787e-05
7.7777381260567e-06,9.67373828640319e-06,1.32751165811218e-05,3.07265929935817e-05
4.41726681472786e-06,4.17699101941739e-06,1.08923861041298e-05,1.9486643938275e-05
3.34856615504252e-06,2.91405431836958e-06,8.52976620164371e-06,1.47923866750558e-05
4.91152093562766e-06,7.38712462019674e-06,1.12433696679493e-05,2.35420152237737e-05
6.70439005948326e-06,9.87822317622696e-06,1.3560767123102e-05,3.01433803588122e-05
6.82718642844005e-06,7.34294493158264e-06,1.46861165045327e-05,2.88562478645554e-05
8.4705023527638e-06,1.00983224992576e-05,1.38893256464916e-05,3.24581504985131e-05
4.9907046618242e-06,6.73618910315511e-06,1.13343477125673e-05,2.30612414775466e-05
5.42398171573338e-06,3.94397850290362e-06,1.03705077362567e-05,1.97384679548937e-05
4.02805953287295e-06,2.96724919836663e-06,8.66157171496803e-06,1.56568804462076e-05
5.42505541802582e-06,3.60103041856454e-06,1.00721752352621e-05,1.90982610718525e-05
4.96547590083223e-06,5.28999463305906e-06,1.04763038010988e-05,2.07317743349901e-05
8.47629780895924e-06,1.07347034589792e-05,1.7559533313357e-05,3.67705345812954e-05
1.44898883681294e-05,8.88081311715036e-06,1.499418683425e-05,3.83648883195297e-05
8.2409027501471e-06,1.10933094202972e-05,1.50198724251873e-05,3.43540845956315e-05
5.4856690855042e-06,3.56410478554357e-06,1.14860398170019e-05,2.05358136880497e-05
5.39972400638592e-06,3.27297660020649e-06,1.08623766600541e-05,1.95350772666465e-05
1.65218552633272e-05,1.66927001255593e-05,1.99480226963297e-05,5.31625780852162e-05
1.0638209426677e-05,1.37034388703498e-05,1.82697628913566e-05,4.26114111883834e-05
8.27721620652432e-06,1.16818131309286e-05,1.34390274717274e-05,3.33980568091804e-05
6.6467974984044e-06,7.90148714536709e-06,1.21445340865862e-05,2.66928187303577e-05
6.2843856442024e-06,4.06384972304951e-06,1.08625913710548e-05,2.12108267383067e-05
6.19059443656842e-06,6.1171745016204e-06,1.28681691873496e-05,2.51759381255384e-05
5.84302921997587e-06,4.2293073046579e-06,1.13673007380189e-05,2.14396372626526e-05
2.05668326279923e-05,1.90399926989605e-05,2.58105521352269e-05,6.54173774621798e-05
8.32449406521602e-06,1.18631063321935e-05,1.9112992327135e-05,3.93005927245445e-05
8.35396312588794e-06,8.84275866504808e-06,1.60067651347704e-05,3.32034869257064e-05
7.70114454875127e-06,8.21831530475624e-06,1.83376884107232e-05,3.42571482642307e-05
3.38256251775276e-06,3.79823906077921e-06,1.03489153950024e-05,1.75297169735343e-05
4.73907234548798e-06,3.36804272567195e-06,1.03149930262134e-05,1.84221080973733e-05
4.62499487764079e-06,3.63840773439183e-06,1.04919177296708e-05,1.87553203417034e-05
4.00386095060788e-06,3.36479995944567e-06,1.2027352624528e-05,1.93960135345815e-05
1.44875680620071e-05,7.83739216611602e-06,1.30711269865388e-05,3.53960872146619e-05
6.54996273205423e-05,3.08148430938205e-05,3.83981760062948e-05,0.000134712646420658
4.53565852620698e-05,2.7748630672355e-05,5.01595294808383e-05,0.000123264745415263
5.30610371412159e-06,3.72160606355965e-06,1.05051755308635e-05,1.95328853085447e-05
5.94469480287865e-06,4.62329358438839e-06,1.17992186065193e-05,2.23672069937864e-05
3.89239983046596e-06,3.56193596110745e-06,1.03435577856837e-05,1.77978935772571e-05
8.45091444270481e-06,6.89765416376263e-06,2.30918814949857e-05,3.84404501014531e-05
3.74222116567467e-06,3.45141094506803e-06,9.80542517013764e-06,1.69990572808803e-05
1.48476825188634e-05,1.38771089700515e-05,2.9983886400095e-05,5.87086778890099e-05
