potencia_x,potencia_y,potencia_z,potencia_total_xyz
0.000175116196549607,0.000688004511178092,0.000463843856269288,0.00132696456399699
0.000258210853620186,0.00137588158786171,0.00066576290840166,0.00229985534988355
0.000278617655434489,0.000919516565340548,0.00045093907779975,0.00164907329857479
7.45117675409261e-05,4.52021354888454e-05,8.70917051775475e-05,0.000206805608207319
0.000239573690215163,0.000482579134636407,0.000335699803548157,0.00105785262839973
0.000130144032724596,7.78657797698785e-05,8.10897846232965e-05,0.000289099597117771
0.000190719388192903,0.000245110881533275,0.000211089586251378,0.000646919855977556
0.000119087240240129,0.000182950726676497,5.3850639651726e-05,0.000355888606568352
0.000118332028164069,0.000176991301292694,9.34274897572693e-05,0.000388750819214033
0.000344449217810451,0.000372942695960024,0.000373613841279774,0.00109100575505025
2.87053899992348e-05,4.18190357477103e-05,5.16901658179308e-05,0.000122214591564876
7.93959464575047e-05,0.000124580374765989,0.000105893336231244,0.000309869657454738
0.000318870220005899,0.000285803006303133,0.000449015665182153,0.00105368889149118
5.23717034512487e-05,0.00014513027719113,4.1771550794517e-05,0.000239273531436896
2.97213513029967e-05,8.43872201354936e-05,3.18998809384663e-05,0.000146008452376957
0.000116444396563871,0.000132398445763392,8.75799434924225e-05,0.000336422785819686
0.000205768291743405,0.000128465044499763,0.00011340315156971,0.000447636487812878
0.00021891299414332,0.000434243059459773,0.000226160975256917,0.000879317028860009
7.05063790010663e-05,6.20264829926588e-05,6.89479350918492e-05,0.000201480797085574
0.000212031294913885,0.000392360301017069,0.000269427009709984,0.000873818605640938
0.000117720044726506,0.000220276800282185,0.000162279140121093,0.000500275985129785
3.15088514783224e-05,2.02499424441711e-05,3.5733337282466e-05,8.74921312049596e-05
1.39570276934325e-05,1.55906062281229e-05,3.1971689067881e-05,6.15193229894364e-05
2.56847042290503e-05,2.68474169286305e-05,4.43792255623048e-05,9.69113467199856e-05
4.4013430994809e-05,3.64333067879809e-05,5.58152893545169e-05,0.000136262027137307
3.43791745219968e-05,1.24765349862201e-05,2.63968072188114e-05,7.32525167270283e-05
3.88074225687166e-05,2.89465432132187e-05,3.64172234206238e-05,0.000104171189202559
5.93535846895242e-05,2.70326111015881e-05,3.42894948823245e-05,0.000120675690673437
0.000268983588706007,0.000325483674370632,0.000299908443354863,0.000894375706431502
2.63428348265901e-05,3.86684633139588e-05,2.96268831132866e-05,9.46381812538355e-05
2.68615111736978e-05,1.74029362328775e-05,3.65354112455286e-05,8.07998586521039e-05
0.000142021323473329,0.00016163406019918,0.000152940501053974,0.000456595884726483
7.52907144677623e-05,4.86393096001007e-05,6.38385615859767e-05,0.00018776858565384
5.36364732451918e-05,3.16424478892978e-05,4.74663221345608e-05,0.00013274524326905
5.10990322372347e-05,1.96934524328657e-05,4.02104773642593e-05,0.00011100296203436
4.62625692915414e-05,2.60895522859854e-05,4.4122041855993e-05,0.00011647416343352
3.13637957130767e-05,1.46865984691071e-05,2.93166274057147e-05,7.53670215878984e-05
0.000114259679335959,0.000190610764564237,0.000117819328496738,0.000422689772396934
0.000181042209326748,0.000468475252419074,0.000305141440431865,0.000954658902177687
0.000552526590375071,0.00202145455979236,0.00141127194922088,0.00398525309938832
0.000295817186251066,0.00113523001217811,0.000710659746700089,0.00214170694512927
3.23329601517582e-05,3.64575697888307e-05,3.65850008709701e-05,0.000105375530811559
5.77144555517687e-05,5.45412270866504e-05,7.58371318659754e-05,0.000188092814504394
0.000102012740262803,0.000286963034149835,0.000190156242376291,0.000579132016788928
4.20923020947559e-05,4.96679389154462e-05,4.21667344899552e-05,0.000133926975500157
0.000122992607544588,0.000219340838579405,0.000130453610171746,0.00047278705629574
0.000549608569091253,0.00272668735528663,0.00152072001714381,0.0047970159415217
0.000108218258377702,0.000183737853485579,0.000121349223866584,0.000413305335729865
0.000643865332856183,0.00211335707244314,0.00131638681248027,0.00407360921777959
0.000220369763139725,0.00111169207906072,0.000600863745145528,0.00193292558734598
0.000504382200449579,0.00196642925123108,0.000925517181103837,0.00339632863278449
0.000477957687868736,0.00200020993998463,0.00113793091339769,0.00361609854125106
0.000443307875354031,0.00222395815965843,0.00106038395807066,0.00372764999308312
7.26467486783194e-05,0.000311568962716553,0.000192545940530517,0.00057676165192539
8.40031132644879e-05,0.000250054549050147,0.000182593878771454,0.000516651541086089
4.11873054466527e-05,5.9785949914616e-05,4.62332277199219e-05,0.000147206483081191
4.24635185561084e-05,1.99130364778261e-05,3.37584308939789e-05,9.61349859279134e-05
4.03656905486764e-05,1.46989440966149e-05,3.2065154392736e-05,8.71297890380274e-05
0.000177213319004741,0.000537639688624251,0.000386004307885173,0.00110085731551416
0.000105767491405762,0.000462887525384212,0.000191611908719291,0.000760266925509265
0.000160736715430825,0.000162489471595754,0.000275149688762784,0.000598375875789363
8.00020571948924e-05,0.000219380230542605,0.000111767753416999,0.000411150041154496
2.81070803535639e-05,2.05281268985873e-05,3.08649416116826e-05,7.95001488638338e-05
9.52980390389305e-05,0.000133425593868018,0.000101242167493197,0.000329965800400146
5.94159332478129e-05,2.46558585653717e-05,5.38584808091038e-05,0.000137930272622288
4.77712208646218e-06,3.75191933003847e-06,1.23841198127071e-05,2.09131612292078e-05
5.65412065540075e-05,3.20967337050763e-05,3.55872176820229e-05,0.000124225157941107
0.000111421167201549,6.89840467622869e-05,0.000119311855213228,0.000299717069177063
4.10836047969331e-05,3.59596383598512e-05,3.79555191739701e-05,0.000114998762330754
2.52891257503362e-05,4.53763884796055e-05,8.91269287928823e-05,0.000159792443022824
7.48297027821023e-06,6.7437294542595e-06,2.22596921174881e-05,3.64863918499579e-05
1.4731953791733e-05,1.03290062158344e-05,2.65551433760882e-05,5.16161033836557e-05
7.47622721943943e-06,6.01761768292442e-06,1.78362928042119e-05,3.13301377065758e-05
4.83886611659522e-06,5.39667230764072e-06,1.75827280415607e-05,2.78182664657966e-05
1.068714063338e-05,8.62310235225343e-06,1.90094845119722e-05,3.83197274976056e-05
2.41068079553423e-05,5.6479085718121e-05,3.2071174076466e-05,0.000112657067749929
6.8186993407773e-06,4.83102001020971e-06,1.61841517005645e-05,2.78338710515515e-05
4.82457066852336e-06,4.07092611550202e-06,1.45624953311331e-05,2.34579921151585e-05
1.09921829932595e-05,9.52789952050566e-06,2.53648347602344e-05,4.58849172739996e-05
6.63543426762534e-06,5.05065543141441e-06,1.45613820466462e-05,2.62474717456859e-05
3.53864274915596e-06,3.46984464983978e-06,1.09523547245335e-05,1.79608421235293e-05
1.36004223246346e-05,6.52209845389419e-06,2.31268626195862e-05,4.3249383398115e-05
1.0179831852019e-05,2.35237423384269e-05,5.64724963200485e-05,9.01760705104944e-05
1.00388098829306e-05,8.31478353728134e-06,1.80161390077504e-05,3.63697324279624e-05
1.33730826708536e-05,1.17285409043528e-05,2.73202355181232e-05,5.24218590933296e-05
1.5700838790716e-05,6.31454518896545e-06,1.92097570342867e-05,4.12251410139682e-05
7.80410751179935e-06,6.30975063177067e-06,1.69939400822221e-05,3.11077982257921e-05
1.44097591763574e-05,8.55611702681912e-06,2.52143812986605e-05,4.8180257501837e-05
1.20883889928424e-05,2.24206109224235e-05,7.30597724994893e-05,0.000107568772414755
1.30636473698304e-05,1.48644494449964e-05,3.51343871935062e-05,6.30624840083329e-05
9.39789672940417e-06,8.12395243168836e-06,2.29541903962527e-05,4.04760395573452e-05
1.50440796048911e-05,7.88275307378428e-06,2.10252399240983e-05,4.39520726027737e-05
6.57567461981656e-06,4.68173665602598e-06,1.3381931395915e-05,2.46393426717576e-05
7.16470006450416e-06,5.93626232810781e-06,1.8939622912617e-05,3.2040585305229e-05
1.00756291214551e-05,6.54506623198657e-06,2.31476061173922e-05,3.97683014708338e-05
1.53458936103102e-05,8.10431717630286e-06,2.20387750219002e-05,4.54889858085133e-05
1.81879480396733e-05,2.74030012198029e-05,5.20118377934728e-05,9.7602787052949e-05
6.67228942540973e-06,5.51261780752932e-06,1.95960934972576e-05,3.17810007301967e-05
6.6903157131376e-06,6.1867789098604e-06,1.87712399940418e-05,3.16483346170398e-05
1.68824192284519e-05,2.4507974109239e-05,3.5651999642376e-05,7.70423929800668e-05
0.000197301638648004,0.000558268962492274,0.000460101438382525,0.0012156720395228
8.55272434019011e-05,8.1810214187439e-05,0.0001163557863013,0.00028369324389064
8.27797873939329e-05,9.57361038850207e-05,0.000119000285153965,0.000297516176432919
0.000308106254346595,0.000743253563324679,0.000711226270692189,0.00176258608836346
0.000314155338257606,0.00048444390226402,0.000750768645844296,0.00154936788636592
0.000425612777827642,0.00222391993584391,0.00115915309974893,0.00380868581342048
5.94619074806095e-05,4.96484649008753e-05,7.53544224566585e-05,0.000184464794838143
4.85757951618014e-05,3.74751413221184e-05,0.00015957547306942,0.00024562640955334
1.1953733009398e-05,8.79448302079236e-06,3.38035950458546e-05,5.45518110760449e-05
7.13467915751493e-05,0.000148131219561246,0.000130248447173227,0.000349726458309623
3.65542614969379e-05,8.26753146511855e-05,9.24977845196748e-05,0.000211727360667798
4.7048265020989e-05,0.000202966306764832,0.00017588198471398,0.000425896556499801
3.24123537941665e-05,2.17907404336932e-05,3.25889261848644e-05,8.67920204127241e-05
0.000266190652901762,0.000650588024939241,0.000415983791699509,0.00133276246954051
0.000519675025443629,0.00208206587147166,0.00111725231007795,0.00371899320699324
2.62037072509886e-05,2.43450226600466e-05,3.31502756116236e-05,8.36990055226589e-05
6.60853173530944e-05,6.611554692691e-05,8.40251914960106e-05,0.000216226055776015
0.000243013680867372,0.000300366178867493,0.00023511646194542,0.000778496321680285
0.000561009678893097,6.0954594815e-05,4.69519270421051e-05,0.000668916200750202
0.000100083358329983,4.98210971155676e-05,2.36997790373347e-05,0.000173604234482885
0.000309382003814301,6.11003404017853e-05,5.12873551698164e-05,0.000421769699385903
0.000228944597138276,4.55895440087266e-05,3.91270140954617e-05,0.000313661155242465
6.49124853472979e-05,5.43242302943356e-05,2.05332850547886e-05,0.000139770000696422
0.000212847557135392,4.17666158931491e-05,2.62806971326302e-05,0.000280894870161172
0.000111478162172598,4.31284094593592e-05,2.34016069034632e-05,0.000178008178535421
0.000186006926602564,4.67788285836844e-05,3.72988920459437e-05,0.000270084647232192
0.000273986660036745,5.05715705062327e-05,3.82169477189732e-05,0.000362775178261951
4.11085958535063e-05,4.90167969171862e-05,1.95383054966568e-05,0.000109663698267349
0.000140160715094694,3.47365613726098e-05,2.76779893419416e-05,0.000202575265809245
0.000237800573458391,0.000199984998311231,0.000115467014909833,0.000553252586679455
0.000246605260167222,0.000433708702048149,0.000224827630086829,0.0009051415923022
8.39812706192907e-05,0.000173397778767677,8.71837464246961e-05,0.000344562795811663
0.000137333613398635,4.11050031919175e-05,2.69113177930817e-05,0.000205349934383634
0.000168802014144341,4.7286598635563e-05,3.21824534418834e-05,0.000248271066221787
0.00013005013354807,4.21242738311444e-05,2.86658513184992e-05,0.000200840258697714
0.000166868430075597,4.60361597547234e-05,3.96541614442017e-05,0.000252558751274522
0.000160634254475699,4.13579759741911e-05,3.01386248374679e-05,0.000232130855287358
9.73214000368876e-05,0.000113890568009998,0.000126364212236454,0.00033757618028334
3.66807398925052e-05,4.95979544132887e-05,6.01103961080926e-05,0.000146389090413887
3.7262114564102e-05,9.24987330630453e-05,0.000106550014143047,0.000236310861770194
0.000115466101823365,0.000239233055164053,0.000115418632456762,0.000470117789444181
0.000120143422512075,0.000172731541394036,0.000105713434427148,0.00039858839833326
0.000710299138278342,0.00148857494722375,0.00107530043853106,0.00327417452403315
0.000242296993900796,0.0014837786361651,0.00104101039824425,0.00276708602831015
7.31870976346242e-05,3.46714451146987e-05,6.3557359472428e-05,0.000171415902221751
0.000187964787461297,0.000135627157684952,0.000139876552603021,0.000463468497749269
0.000129189310118429,5.94479421254688e-05,8.46222077450695e-05,0.000273259459988968
0.000216545988064708,0.000181538121709715,0.000310748059666524,0.000708832169440947
0.000189149278686462,0.00019481614647404,0.000241606883818066,0.000625572308978568
8.84278732704984e-05,7.90728461274047e-05,9.52621205948012e-05,0.000262762839992704
0.000176824100464009,0.00037113839022858,0.000260659371330821,0.00080862186202341
0.00019705976116286,0.000196580576921253,0.000238769743888595,0.000632410081972707
0.000275894236607474,0.0010013354589392,0.00040485829672734,0.00168208799227401
2.79745001164521e-05,3.07136795303399e-05,0.000103650291745237,0.000162338471392029
9.28675934703988e-05,0.000219854821570717,8.06586384494527e-05,0.000393381053490569
0.000463860855451817,0.00198797006812118,0.000621073835202231,0.00307290475877523
6.53600673241176e-05,7.79774808927893e-05,7.05828532039517e-05,0.000213920401420859
0.000269261076839638,0.00140050864801283,0.000456724542928944,0.00212649426778142
0.000757249153574243,0.0025945647279251,0.00100237121810458,0.00435418509960393
0.000848804058829553,0.00313154066992399,0.00155155080468664,0.00553189553344018
0.000881338396724952,0.00445426620538252,0.00164452003406618,0.00698012463617365
0.00149592294869359,0.00884627466913324,0.00352084370651069,0.0138630413243375
0.00173504158118876,0.0080245043441926,0.00372394344751447,0.0134834893728958
0.00217134432930299,0.010221225718337,0.00458547649081034,0.0169780465384503
0.00215791454770432,0.00899754466995676,0.00550807675919426,0.0166635359768553
0.00185139337024162,0.00857175307984472,0.00579475552636476,0.0162179019764511
0.00214941471215332,0.0076170327672856,0.00447695564332057,0.0142434031227595
0.00214645967004854,0.0082205280738027,0.00550236638831783,0.0158693541321691
0.00139288839998568,0.00750669791041246,0.0046224449656964,0.0135220312760945
0.00124922358368339,0.00666547775350449,0.00427146192820159,0.0121861632653895
0.00136721500934864,0.00714754882044905,0.00353652855731133,0.012051292387109
0.00143601782778053,0.00711452475759658,0.00475822962064256,0.0133087722060197
0.00166575901789278,0.00797873199602022,0.00535536182025663,0.0149998528341696
0.00174135588896108,0.00959691933393637,0.00696328614323853,0.018301561366136
0.00167325504735306,0.00924152508484723,0.00659861742226259,0.0175133975544629
0.00129857360426419,0.00790049870515963,0.0048418682845279,0.0140409405939517
0.00132596370273073,0.00825103601825776,0.00473465665219222,0.0143116563731807
0.000271004868002688,0.000277832544388769,0.000313153394884321,0.000861990807275778
0.000233323917519487,0.000251221579411519,0.000411547010066524,0.00089609250699753
0.00024939769751381,0.000441704845569557,0.000466323851349743,0.00115742639443311
0.000317398073669222,0.00049405061704853,0.000371846074892689,0.00118329476561044
0.000351802139522612,0.000786991561813487,0.000574812483563249,0.00171360618489935
7.34885436810088e-05,3.75228986440171e-05,0.000110981209707264,0.00022199265203229
0.000202479178599692,0.00010641543695056,0.000169452402104405,0.000478347017654656
0.000170016688813604,0.00013772802831324,0.000196483876598426,0.00050422859372527
0.000112295982815189,6.61314677791156e-05,0.000114436011400984,0.000292863461995288
0.000101231435574857,0.000103297177581487,0.000142904576324939,0.000347433189481283
7.59977257266116e-05,5.97402935530084e-05,0.0001094559914069,0.00024519401068652
1.88718196827221e-05,1.3601192942094e-05,4.46937188790976e-05,7.71667315039136e-05
0.000128058321043175,8.54737162243689e-05,0.000101104346525673,0.000314636383793218
6.42949994808962e-05,7.78877195245557e-05,7.23741172594586e-05,0.000214556836264911
5.34014317849156e-05,5.34845981909106e-05,4.82077101209604e-05,0.000155093740096787
2.2329112389112e-05,2.85548800146049e-05,3.37445234764416e-05,8.46285158801585e-05
4.08833055257901e-05,4.87910123424655e-05,6.13806474921081e-05,0.000151054965360364
2.19330909986036e-05,1.34913089410948e-05,2.92043882857566e-05,6.4628788225455e-05
1.03928696842797e-05,1.17107780872353e-05,2.35962464014045e-05,4.56998941729195e-05
8.99668293029121e-06,8.12426134978833e-06,2.13118515612189e-05,3.84327958412985e-05
2.07143404304508e-05,2.00887481525925e-05,4.96547438490126e-05,9.04578324320558e-05
1.30871029834445e-05,7.03007734154597e-06,2.22602690096113e-05,4.23774493346017e-05
3.15754827387185e-05,2.3501679712718e-05,3.8873797062066e-05,9.39509595135024e-05
9.48368302746696e-05,5.79946100922433e-05,6.94064690183921e-05,0.000222237909385305
5.91571170819961e-05,7.39208823255326e-05,5.16476227120437e-05,0.000184725622119572
0.000133441510029879,0.000295712935613509,0.000206899864951544,0.000636054310594932
5.6664951699034e-05,0.000106094426045803,9.50292236797649e-05,0.000257788601424602
4.72300991135226e-05,4.52927021915769e-05,6.46645730261803e-05,0.00015718737433128
8.82789225424609e-05,8.28716006004889e-05,7.96538640637701e-05,0.00025080438720672
2.84912982415336e-05,3.27794280676291e-05,4.98899689717845e-05,0.000111160695280947
1.91623590465149e-05,3.12499734641612e-05,0.000141110629619503,0.000191522962130179
5.84965941109227e-05,6.43321455097117e-05,9.10384291624621e-05,0.000213867168783096
3.24890666932233e-05,4.21091505842152e-05,4.81063240149147e-05,0.000122704541292353
1.83593713397177e-05,8.07338142124068e-05,6.5771242127024e-05,0.000164864427679149
6.20022884117954e-05,0.000153946423009402,0.000107748939304856,0.000323697650726053
6.21908525868741e-05,0.000108843887758054,0.000113054480267181,0.00028408922061211
8.64986183621006e-05,0.000141341704711384,9.49460802820949e-05,0.00032278640335558
4.47974608492305e-05,3.87055663998379e-05,7.12733335132839e-05,0.000154776360762352
3.28014007334422e-05,7.53313846221141e-05,6.9135817021874e-05,0.00017726860237743
1.16422233438849e-05,1.16659667749341e-05,2.71420181342333e-05,5.04502082530523e-05
5.88817214845973e-06,7.60621816354374e-06,2.14809116965002e-05,3.49753020085037e-05
6.00791490865277e-06,7.02123404986629e-06,1.76877609675745e-05,3.07169099260935e-05
7.86568039908154e-06,9.3427218916591e-06,2.17037553679933e-05,3.8912157658734e-05
2.29191231543597e-05,2.62215228253059e-05,5.04261273470031e-05,9.95667733266688e-05
2.82141229515042e-05,2.47683026204495e-05,5.56686223369043e-05,0.000108651047908858
3.8519114987997e-05,3.56273651233897e-05,4.93909005903195e-05,0.000123537380701706
2.71943621889586e-05,2.52785845867882e-05,5.27455823093432e-05,0.00010521852908509
6.25069402671223e-06,1.10812447222614e-05,1.83216333575511e-05,3.56535721065247e-05
6.15274610632888e-06,1.27445674249471e-05,1.82085541203694e-05,3.71058676516454e-05
6.96717192236127e-06,1.25168804565054e-05,1.63430045773002e-05,3.58270569561669e-05
7.31186982382973e-06,1.30868125523526e-05,1.78103479280675e-05,3.82090303042499e-05
7.49638853342392e-06,1.25867601073536e-05,1.53752259814114e-05,3.54583746221889e-05
9.97796869537745e-06,1.4256969576039e-05,2.37314349492189e-05,4.79663732206354e-05
2.67026146031547e-05,3.26561380184048e-05,6.53727656370875e-05,0.000124731518258647
2.44911832231794e-05,1.29266408713265e-05,2.49126306192561e-05,6.23304547137619e-05
6.54906532725696e-05,0.000141354479480954,0.000142176137388437,0.00034902127014196
5.45649147628949e-05,0.000103884242983812,0.000105950892767086,0.000264400050513793
5.67777037292875e-05,0.000130469955041316,0.000105669916300571,0.000292917575071175
3.021475758488e-05,5.48804943306375e-05,5.63626793906698e-05,0.000141457931306187
1.04721076741416e-05,1.31809436392931e-05,3.04787387511291e-05,5.41317900645637e-05
3.32847264804979e-05,2.6317333023551e-05,4.07829899301669e-05,0.000100385049434216
6.64401866388077e-05,6.56116933532613e-05,7.29754514631451e-05,0.000205027331455214
0.000202265611510706,0.000263229172478955,0.000179290674562819,0.000644785458552481
4.18306351393549e-05,6.26974110161317e-05,7.48141802775959e-05,0.000179342226433082
2.86356838467227e-05,3.41508088433963e-05,4.9168953986746e-05,0.000111955446676865
0.000119680520493367,0.000162659433416914,0.000129013831133476,0.000411353785043757
2.68374465383381e-05,8.42234028154301e-05,8.30549843783825e-05,0.000194115833732151
2.07676963941761e-05,6.69478214104342e-05,7.29413552836939e-05,0.000160656873088304
1.90980261163024e-05,4.98471101816868e-05,5.0538230703332e-05,0.000119483367001321
2.13768820802043e-05,2.35968635360189e-05,3.74350833982006e-05,8.24088290144239e-05
1.9495151159979e-05,1.84246443546289e-05,3.47787954174708e-05,7.26985909320787e-05
1.34425383819718e-05,1.22945545631864e-05,2.18348322820786e-05,4.75719252272369e-05
9.25182607358387e-06,1.18625714551342e-05,1.93872299214263e-05,4.05016274501444e-05
1.13504221788052e-05,1.50626059371376e-05,2.99119175467502e-05,5.63249456626929e-05
2.38339536209267e-05,2.5189303776524e-05,3.72330556841337e-05,8.62563130815844e-05
5.31511717884705e-05,5.8387200970527e-05,7.61280483506934e-05,0.000187666421109691
5.65088239259478e-05,7.40673171390314e-05,9.0649032731837e-05,0.000221225173796816
5.66686034525525e-05,7.42490554504262e-05,7.98929377187631e-05,0.000210810596621742
4.91173583088617e-05,7.24836847058152e-05,7.80070393514329e-05,0.00019960808236611
6.22841444418389e-05,0.000101922262417007,7.9149335048002e-05,0.000243355741906848
5.22561306451216e-05,0.000222013727073459,0.000149700519411271,0.000423970377129852
4.03722850751454e-05,0.00016256835246318,0.000107359131372852,0.000310299768911177
7.39568446935613e-05,0.000120691684766851,0.000113647570179595,0.000308296099640007
9.78492843181454e-05,0.00015497043473778,0.000160444071311257,0.000413263790367182
4.78720304392515e-05,7.20215094808641e-05,5.74828046825281e-05,0.000177376344602644
3.62569799371001e-05,4.47782534484476e-05,7.58948140406388e-05,0.000156930047426187
5.30829175293292e-05,2.87276386966382e-05,7.01870778123139e-05,0.000151997634038281
3.081558537705e-05,3.10077968522224e-05,6.16174609724386e-05,0.000123440843201711
5.85238237037084e-05,6.37183150582703e-05,8.85211597611216e-05,0.0002107632985231
4.21116577161221e-05,6.11802837509616e-05,7.25862140508796e-05,0.000175878155517963
2.13963419472295e-05,1.92201528693159e-05,4.28243402482706e-05,8.3440835064816e-05
7.23385864189201e-05,6.57669062849972e-05,6.8991044174372e-05,0.000207096536878289
0.000227620062754525,0.000262255031137789,0.000233556071816324,0.000723431165708638
4.76781170857535e-05,0.000123601276345191,0.000111371564022245,0.00028265095745319
3.59456913859688e-05,8.69085752731892e-05,8.39374710699938e-05,0.000206791737729152
2.66693253349316e-05,2.856740276569e-05,4.38875200158626e-05,9.91242481164841e-05
2.28374113907225e-05,3.86791659858817e-05,0.000120560019530915,0.000182076596907519
6.02583296703949e-05,5.92331043015249e-05,7.76312613158398e-05,0.00019712269528776
4.97660438912622e-05,8.01700200192773e-05,7.22937253759255e-05,0.000202229789286465
3.67311969756837e-05,0.000138027452281797,0.000113370695856122,0.000288129345113603
3.73904831892136e-05,9.36251744118362e-05,0.00010669029335183,0.000237705950952879
5.15698597557021e-05,5.74097905854487e-05,9.01491560460496e-05,0.0001991288063872
5.28658185137843e-05,4.59164315320529e-05,7.64791596137105e-05,0.000175261409659548
3.61574131352253e-05,2.0400719221662e-05,5.0268443884586e-05,0.000106826576241473
1.41386758215918e-05,1.10470535374006e-05,3.37209482648076e-05,5.89066776238e-05
8.14993562230979e-06,7.67611541207237e-06,1.99710829408193e-05,3.57971339752015e-05
7.38644380446878e-06,8.3280766854173e-06,1.51340066482716e-05,3.08485271381577e-05
6.91076403161686e-06,8.17064097240364e-06,1.39943426863791e-05,2.90757476903996e-05
2.20780175726029e-05,2.04003700418088e-05,3.09846741736926e-05,7.34630617881044e-05
7.79464400601957e-05,8.40498499107176e-05,7.81360413285836e-05,0.000240132331299497
6.28105819049905e-05,9.32774842403955e-05,9.4401794512632e-05,0.000250489860658018
6.9019108307007e-05,0.000106521865047759,0.000111383904063314,0.000286924877418079
3.08333922340482e-05,1.79558550386873e-05,4.11461786029383e-05,8.99354258756738e-05
0.000140413083341119,0.000152571450110613,0.000139000363063639,0.000431984896515371
7.70466220682714e-05,0.000206786382577005,0.000212265016644876,0.000496098021290152
0.00011027587261674,0.000402824154942563,0.000346820060393576,0.000859920087952878
4.63180584954492e-05,0.000119514529841697,6.77520984669666e-05,0.000233584686804113
0.000152563661570574,0.000271996173929457,0.000155977878411832,0.000580537713911862
0.000205087266124766,0.000239640858859238,0.000243901483460737,0.000688629608444741
6.82132813723893e-05,4.80103764963579e-05,9.72265436436664e-05,0.000213450201512414
1.37871686812055e-05,1.24970334943599e-05,2.34859273711645e-05,4.977012954673e-05
8.28375953967638e-06,5.34385243651881e-06,1.32802295212191e-05,2.69078414974143e-05
1.96539972688794e-05,1.23784932149383e-05,2.30472216516891e-05,5.50797121355068e-05
0.000134907153948433,0.000164132168532356,0.000168119470581299,0.000467158793062088
0.000412371772262074,0.00116473600440205,0.000796395437547829,0.00237350321421196
0.000610850875522456,0.000779097792710526,0.000589823306091638,0.00197977197432462
0.000684199489646487,0.00176729186949386,0.00124219929464307,0.00369369065378343
0.000448855588853158,0.00256654280961272,0.00174266093906646,0.00475805933753233
0.000745913604927532,0.00427098364894676,0.0020271492337473,0.00704404648762159
0.000576712899313521,0.00214071428398321,0.00112940395136345,0.00384683113466018
0.000127193440733035,0.000182369997015324,0.000245190601088508,0.000554754038836867
6.07035712375947e-05,6.16960798679333e-05,7.42606881601926e-05,0.000196660339265721
8.15699804117609e-05,8.55425277570012e-05,7.8401414268508e-05,0.00024551392243727
2.25450122340947e-05,1.80806025667692e-05,3.30301410925669e-05,7.36557558934307e-05
2.35419968310622e-05,2.74548380268537e-05,4.87741746553113e-05,9.97710095132272e-05
2.15372465522004e-05,1.65049507937977e-05,3.24305028919763e-05,7.04727002379744e-05
2.03063903502026e-05,1.98441242492369e-05,4.29277234271363e-05,8.30782380265757e-05
0.000129136450034556,0.000136438465347051,0.000142143023509302,0.000407717938890909
6.18165697774345e-05,0.000116202060924582,0.000185484134905166,0.000363502765607182
1.17330283835087e-05,9.3831499745357e-06,2.08585706811907e-05,4.19747490392351e-05
6.27253111843356e-06,7.7507971033241e-06,1.27536552966328e-05,2.67769835183905e-05
3.82350107423996e-05,2.97498015248876e-05,5.57535768087447e-05,0.000123738389076032
8.58393853343279e-05,0.000130528899397873,0.000116852836925295,0.000333221121657496
3.37006705394618e-05,3.94090871754116e-05,5.51896601877911e-05,0.000128299417902664
1.45497273571285e-05,1.75360304107552e-05,2.96964935378311e-05,6.17822513057149e-05
1.60940272029366e-05,1.65531602872202e-05,3.09705894210311e-05,6.36177769111879e-05
2.15465773568436e-05,2.13578434241031e-05,4.42969124475187e-05,8.72013332284654e-05
2.12350403797835e-05,2.73787067364149e-05,5.79914321149289e-05,0.000106605179231127
3.57965236833538e-05,2.66516646573706e-05,5.99198143137717e-05,0.000122368002654496
8.11530019497546e-06,7.49708657577715e-06,2.43814680969706e-05,3.99938548677232e-05
5.75340959205948e-06,6.64096950100023e-06,1.64131328062673e-05,2.8807511899327e-05
2.52007678322424e-05,9.10288610362947e-06,2.23777684036692e-05,5.66814223395411e-05
1.19762294022992e-05,2.9203211761447e-05,6.50501775242506e-05,0.000106229618687997
2.66510509312911e-05,2.16393953831991e-05,4.46755433578636e-05,9.29659896723538e-05
1.60870995832209e-05,1.17697099319956e-05,3.1388908925728e-05,5.92457184409446e-05
7.43514466030443e-05,4.90843810219694e-05,7.37348951072013e-05,0.000197170722732215
6.31340523602283e-05,0.000106625592794781,0.000119072228425105,0.000288831873580114
4.71273298461117e-05,4.21030656355268e-05,7.41180734500129e-05,0.000163348468931651
2.30338040927181e-05,1.38062068002225e-05,4.50045639095585e-05,8.18445748024991e-05
3.83437272690547e-05,5.28879084374946e-05,7.11333155770869e-05,0.000162364951283636
5.56171196977118e-05,0.000111179555778289,0.000131931136903525,0.000298727812379527
5.49429571448888e-05,0.000106582459616873,0.000103011884213558,0.00026453730097532
8.98482645426481e-05,0.000399730392943215,0.00036490395679184,0.000854482614277703
2.65286763301197e-05,2.32815512169066e-05,4.73944861614455e-05,9.72047137084719e-05
3.02646314642122e-05,3.46620353390875e-05,4.75341141666856e-05,0.000112460780969985
2.14930773660491e-05,2.31849224955166e-05,4.03705126964431e-05,8.50485125580087e-05
3.33498454521103e-05,3.51980394134062e-05,4.85532143461795e-05,0.000117101099211696
6.78050831584974e-05,0.00010125898769889,0.000108401488943018,0.000277465559800405
2.08468532844806e-05,1.43650119514967e-05,3.42960033671878e-05,6.9507868603165e-05
1.00596626794028e-05,9.57785155082806e-06,1.65619936331127e-05,3.61995078633436e-05
4.42820067299027e-06,6.71218555837781e-06,1.15171536285638e-05,2.26575398599319e-05
4.37266990644129e-06,7.23123923391986e-06,1.09999819023933e-05,2.26038910427545e-05
5.05096189054712e-06,6.51429766348847e-06,1.24073642266729e-05,2.39726237807084e-05
5.11041246437353e-06,6.68522476634575e-06,1.15419464970768e-05,2.33375837277961e-05
6.20386005025642e-06,6.9772608059425e-06,1.2892848027983e-05,2.60739688841819e-05
2.62135101589707e-05,2.70586707232291e-05,4.195750526647e-05,9.52296861486698e-05
0.000166923207458454,0.000183845545947516,0.000157529318708953,0.000508298072114922
4.68038167470126e-05,4.40312273731073e-05,4.90069392670082e-05,0.000139841983387128
5.26146742100842e-05,8.69724206490959e-05,8.38560269058823e-05,0.000223443121765062
5.42183279592482e-05,0.000115571715763407,0.00013393580418157,0.000303725847904226
9.22100038983009e-05,0.000218757102951661,0.000229172741204723,0.000540139848054685
5.38776728795786e-05,0.000224936497093871,0.000199438026989723,0.000478252196963172
5.25833988870701e-05,0.000312398087680841,0.000181809042675133,0.000546790529243044
0.000128883981777637,0.000230330052432658,0.000170536696066966,0.00052975073027726
4.47373468015941e-05,0.000202162780311146,0.000125147282312374,0.000372047409425114
3.47141022218069e-05,0.00011484829223535,7.3603244280798e-05,0.000223165638737954
5.93604703832919e-05,9.40971198104345e-05,9.10791303073427e-05,0.000244536720501069
6.25843752747046e-05,0.000155595868924055,0.000133348911976408,0.000351529156175167
6.67765194513206e-05,0.000228888475784058,0.000179699767878049,0.000475364763113427
1.70369026743275e-05,1.18903101536571e-05,3.3658264252598e-05,6.25854770805825e-05
3.13772133009275e-05,2.90451029883956e-05,5.43181985297392e-05,0.000114740514819062
8.51642752146129e-05,0.000116554013060241,0.000124427963238579,0.000326146251513434
0.000106049040443221,0.000151594122363107,0.000137797509757478,0.000395440672563806
3.40801213697613e-05,7.91691319987326e-05,9.00798789318428e-05,0.000203329132300337
3.08067685163295e-05,0.000108744241469752,9.18649780067931e-05,0.000231415987992874
4.64869869775676e-05,0.000233632860648436,0.000121897516296795,0.000402017363922798
0.000101423488776539,0.00030138712128572,0.00022047761683937,0.000623288226901628
5.64568948425219e-05,0.000121827498726228,0.000108209446658813,0.000286493840227563
2.62056839971323e-05,1.92080286719124e-05,2.99662466415557e-05,7.53799593106005e-05
7.52528285360533e-05,0.000150792641923439,0.000140218124335483,0.000366263594794976
9.88211384801095e-05,0.000192365893679397,0.000172272884288844,0.00046345991644835
7.42685746673407e-05,0.000226196565784862,0.000150353086821038,0.000450818227273242
2.69768417546489e-05,2.36050435200242e-05,4.5526436242411e-05,9.61083215170841e-05
7.61841735693178e-06,6.51105695487885e-06,1.42747941127188e-05,2.84042684245294e-05
2.27340660169663e-05,4.0255519780921e-05,8.16233995253774e-05,0.000144612985323265
4.87618801548787e-06,5.81967487204974e-06,1.3773828925386e-05,2.44696918129236e-05
3.94801435945237e-06,4.98760424029487e-06,1.10343575250626e-05,1.99699761248098e-05
4.27659495665437e-05,5.01559883011804e-05,5.95765254806942e-05,0.000152498463348418
8.32365985011768e-05,0.000132071926291207,0.000101721663139092,0.000317030187931476
3.82775736263697e-05,3.67044827290846e-05,6.09333320742022e-05,0.000135915388429656
2.81122603642557e-05,6.72572272137493e-05,6.95382770343784e-05,0.000164907764612383
2.75199236712736e-05,2.75866655894641e-05,3.92653672976009e-05,9.43719565583387e-05
1.6378134821252e-05,1.15507014292814e-05,2.82827910614478e-05,5.62116273119812e-05
1.11450376709752e-05,1.05160844463869e-05,2.00169827149812e-05,4.16781048323433e-05
4.92993420028959e-06,6.40740539949463e-06,1.35434814405135e-05,2.48808210402977e-05
4.42335327508784e-06,6.41845772448995e-06,1.23168684603873e-05,2.31586794599651e-05
4.77368462172246e-06,5.91401732846919e-06,1.15948814733331e-05,2.22825834235248e-05
4.88181275921232e-06,6.7312918468624e-06,1.09190780950813e-05,2.2532182701156e-05
2.72881661255435e-05,2.65946095669757e-05,4.60854154076358e-05,9.99681911001549e-05
4.3932170317327e-05,6.68901282972343e-05,5.98672517005709e-05,0.000170689550315132
6.12580161642606e-05,6.66325355734222e-05,6.60940330202948e-05,0.000193984584757978
4.0551756305318e-05,3.25651515841925e-05,4.58498017261904e-05,0.000118966709615701
3.97083178094784e-05,3.15590903826329e-05,6.74595789687079e-05,0.000138726987160819
3.18789787217174e-05,5.04310823181354e-05,6.07678959159566e-05,0.000143077956955809
2.59004476266186e-05,4.9677558909386e-05,6.03039191511342e-05,0.000135881925687139
5.11914122206265e-05,0.000173851067362342,0.000137224338688056,0.000362266818271025
4.65361698296382e-05,0.000126721925153086,0.000164916671108229,0.000338174766090953
5.69969792163901e-05,0.0001876759910231,0.000158792940704439,0.000403465910943929
0.000118127602600998,0.000185108461514152,0.000173631864180529,0.000476867928295679
6.45678806222312e-05,8.89196017664467e-05,0.000141170785597965,0.000294658267986643
4.01326827957983e-05,0.000196710654726235,0.000145534022985044,0.000382377360507077
9.42988632780335e-05,0.000260813613446911,0.000212516458063873,0.000567628934788818
3.08766150788519e-05,6.0018371947877e-05,8.39070995479522e-05,0.000174802086574681
5.2848046783009e-05,7.13286374990172e-05,0.000106530942437606,0.000230707626719632
3.78155193337771e-05,8.31482469949955e-05,0.000107527711359739,0.000228491477688511
3.61573515663264e-05,0.000140241271035267,0.000136385084423585,0.000312783707025179
4.78057555898428e-05,8.01281324194659e-05,8.06344872795659e-05,0.000208568375288875
3.03587920376318e-05,5.12662568422447e-05,4.90293453145374e-05,0.000130654394194414
3.48096002016865e-05,5.65112449813571e-05,6.32055842845256e-05,0.000154526429467569
4.05168307435659e-05,6.69146444119789e-05,8.19905115702698e-05,0.000189421986725815
4.96746964209351e-05,7.04485504870412e-05,8.74027465108144e-05,0.000207525993418791
3.37681282146113e-05,0.000134725748519189,0.000128116311246644,0.000296610187980444
3.5720688211611e-05,0.00010652183932876,8.46444555284895e-05,0.000226886983068861
5.21179161339885e-05,0.000119709595196339,0.000105260151552075,0.000277087662882402
3.94862765036656e-05,0.000137396727928188,0.000112155754142342,0.000289038758574195
5.40114033234866e-05,0.000137949071084977,0.000119083480812141,0.000311043955220604
3.96207185440689e-05,9.26010055366433e-05,8.34387181537088e-05,0.000215660442234421
4.87521122829959e-05,0.000123049577042019,9.71746396934595e-05,0.000268976329018474
4.30553552593499e-05,0.000105183264397081,0.000127918303106322,0.000276156922762752
3.89154175532812e-05,6.22179869248395e-05,6.76927577374823e-05,0.000168826162215603
2.65630728719452e-05,5.51596496718698e-05,8.20455480312506e-05,0.000163768270575066
2.39200936189292e-05,7.99669317398797e-05,7.53410229834043e-05,0.000179228048342213
2.20434592143344e-05,6.11033178805912e-05,5.22387763077584e-05,0.000135385553402684
1.69103994903088e-05,7.58857570850205e-05,8.08059022147057e-05,0.000173602058790035
2.20101609750291e-05,4.92626170582576e-05,5.39681488339113e-05,0.000125240926867198
2.4371032000617e-05,5.25972136876817e-05,4.86250464865159e-05,0.000125593292174815
2.86045937846331e-05,4.82011192488165e-05,6.57237737966482e-05,0.000142529486830098
2.82948949229704e-05,5.5492005632465e-05,5.53864655034289e-05,0.000139173366058864
2.5284938576921e-05,6.22960114958331e-05,6.59627667402384e-05,0.000153543716812992
2.26358348176496e-05,4.95745387791942e-05,6.78787298522433e-05,0.000140089103449087
2.67349410559231e-05,4.74473954859691e-05,5.55538644495736e-05,0.000129736200991466
2.28190298270242e-05,5.00975411659336e-05,4.89666349174872e-05,0.000121883205910445
2.63585544612325e-05,9.63871511617603e-05,8.72085506446259e-05,0.000209954256267619
2.26141347366965e-05,9.12076297062278e-05,9.47316643304604e-05,0.000208553428773385
2.47088692784402e-05,0.000107839646640154,8.66549363822088e-05,0.000219203452300803
2.59776974115081e-05,0.000127810719235227,9.11125913097495e-05,0.000244901007956485
3.03200200191616e-05,0.000150861094163772,0.000109920992242502,0.000291102106425435
3.07892397535608e-05,0.00014726543451529,0.000113438424360799,0.000291493098629649
2.86857389538992e-05,0.000141159224764949,0.00011477010226083,0.000284615065979678
4.69234132641169e-05,0.000331041283201008,0.000230993315569989,0.000608958012035114
2.57179415575772e-05,6.73290137706189e-05,6.21196317762241e-05,0.00015516658710442
2.56073252756672e-05,6.82001396189523e-05,6.31884541833865e-05,0.000156995919078006
3.08518869078305e-05,0.000130185401017637,9.3886808471429e-05,0.000254924096396897
2.01151744482115e-05,6.05630300429801e-05,6.87391858065904e-05,0.000149417390297782
2.33079764554971e-05,7.05449507463143e-05,6.71901260437591e-05,0.00016104305324557
2.96111580445973e-05,7.30132880164814e-05,6.79338752528986e-05,0.000170558321313977
2.83989320875247e-05,6.57888056608748e-05,5.83568384072863e-05,0.000152544576155686
4.23537958198857e-05,0.000135000942401863,7.72283721560968e-05,0.000254583110377846
4.23625707297461e-05,0.000103157929735854,7.04619895913679e-05,0.000215982490056968
3.39971956092386e-05,0.000102232669618981,8.72094346221486e-05,0.000223439299850368
3.92987178249895e-05,0.000170007689596963,0.000107794767976306,0.000317101175398259
0.0002713513961677,0.000235432508399332,0.000218895523617346,0.000725679428184379
2.80685978677031e-05,0.000187522093498897,0.00012301397231585,0.000338604663682451
2.70065273736568e-05,0.000150066992236764,0.000124236354495421,0.000301309874105842
3.24440784581544e-05,0.000201695178154073,0.000123678258761655,0.000357817515373882
3.24890097809202e-05,0.000239296552427793,0.000142435046674916,0.000414220608883628
2.70697989282163e-05,9.38834092335803e-05,7.95731519151948e-05,0.000200526360076991
3.44747814321932e-05,0.000124203076177003,9.40612067014363e-05,0.000252739064310632
9.52000135910214e-05,0.000336127883588834,0.000244661568876105,0.00067598946605596
2.64739622588733e-05,7.16331966545113e-05,9.93227218730304e-05,0.000197429880786415
2.74660122244426e-05,9.34444385960981e-05,9.13665164671286e-05,0.000212276967287669
4.82694855727673e-05,0.000144456601997964,0.000123712644224777,0.000316438731795508
5.38215797054051e-05,0.00016890301591773,0.000143719155909232,0.000366443751532367
5.54487084282843e-05,0.000118204599156145,0.000106607059783734,0.000280260367368163
9.34999479458065e-05,0.000287115401693336,0.000206535006946463,0.000587150356585606
0.000127727756230253,0.000476886909160428,0.000309755077621111,0.000914369743011791
4.57021751770447e-05,0.000229184344933481,0.000152867497955928,0.000427754018066454
4.86723068946189e-05,0.000152068527464245,0.000109851668447263,0.000310592502806127
5.42303039289609e-05,0.000160052138292833,0.000122719391567844,0.000337001833789638
0.000183557161628807,0.000494034650981345,0.000613149609737376,0.00129074142234753
0.000154745074149765,0.000375961601341104,0.000466187143745529,0.000996893819236398
6.39248242897778e-05,6.11145972569798e-05,8.4407081782126e-05,0.000209446503328884
3.51411323385241e-05,3.16102183925809e-05,5.82850632397494e-05,0.000125036413970854
3.43514493576835e-05,2.68845720357704e-05,5.18793335154637e-05,0.000113115354908918
4.63602417545776e-05,3.49132969052619e-05,6.90337681778992e-05,0.000150307306837739
5.97115988776933e-05,8.16814664774579e-05,9.11088175038377e-05,0.000232501882858989
4.93843559512659e-05,3.71019426926545e-05,5.06391010385442e-05,0.000137125399682465
3.19246266993989e-05,3.68580936035545e-05,5.15655004145168e-05,0.00012034822071747
4.75173508593205e-05,2.92632371273807e-05,3.96794720375202e-05,0.000116460060024221
3.53556061640582e-05,3.60936556813978e-05,4.79940187455242e-05,0.00011944328059098
8.5541291237829e-05,6.98176855142425e-05,0.000157119483115453,0.000312478459867524
4.32571859973398e-05,2.10367380532991e-05,4.04496797408885e-05,0.000104743603791527
2.95251147963433e-05,1.8494146482873e-05,3.39174039410754e-05,8.19366652202916e-05
0.000126276959984789,0.000213749229098728,0.000106489401109683,0.0004465155901932
7.37432854267012e-05,4.53160004857609e-05,8.06495752196878e-05,0.00019970886113215
2.39693993645469e-05,1.38388224141832e-05,3.66805592466369e-05,7.4488781025367e-05
4.9405677447277e-06,4.5555797637595e-06,1.08998333495743e-05,2.03959808580615e-05
4.77400171704678e-06,4.20578231415668e-06,1.08229760891258e-05,1.98027601203293e-05
4.63049445844895e-06,4.01069198265146e-06,1.04378426034857e-05,1.90790290445861e-05
5.04973020816545e-06,4.79066360300119e-06,1.23023312500476e-05,2.21427250612142e-05
4.00914702208321e-05,2.46609099132188e-05,4.17813524010409e-05,0.000106533732535092
4.08761627704504e-06,4.99904444717851e-06,1.08110149694959e-05,1.98976756937194e-05
4.11199508569375e-06,4.99633115163883e-06,1.08289899885321e-05,1.99373162258647e-05
4.07948348253724e-06,4.9821106728232e-06,1.11611748096492e-05,2.02227689650096e-05
4.01890425343153e-06,5.27066156545997e-06,1.10737466561911e-05,2.03633124750826e-05
4.33629466916798e-06,5.25832792642557e-06,1.11649115838345e-05,2.07595341794281e-05
4.160326897678e-06,5.65710949787548e-06,1.06596948562226e-05,2.04771312517761e-05
4.05733676764995e-06,5.30000851013968e-06,1.12723041524353e-05,2.0629649430225e-05
0.0002316685020315,0.000112005403093293,0.000108498762116588,0.000452172667241381
5.13881303922831e-05,5.28172546567258e-05,5.02760834137784e-05,0.000154481468462787
1.46033381062448e-05,3.55931065889806e-05,4.63457244317267e-05,9.65421691269522e-05
1.62040945675546e-05,2.17628871350705e-05,2.70786369077476e-05,6.50456186103727e-05
1.09572438479788e-05,1.83781888908879e-05,2.78811995428789e-05,5.72166322817457e-05
1.11080629545548e-05,2.05396705565056e-05,2.87628791663973e-05,6.04106126774577e-05
1.00731793684956e-05,1.77968841768068e-05,2.05013320291606e-05,4.8371395574463e-05
1.64355628796195e-05,3.36730817331141e-05,3.66180826516931e-05,8.67267272644267e-05
8.5455472348149e-06,1.53699128036884e-05,1.87121218548665e-05,4.26275818933698e-05
7.57037435114465e-06,1.5783893285998e-05,2.14922246510034e-05,4.48464922881461e-05
7.3159237200547e-06,1.22988528840417e-05,1.67285520884626e-05,3.6343328692559e-05
7.27111506936283e-06,1.28827934819704e-05,1.79070937047112e-05,3.80610022560444e-05
7.07957451063749e-06,1.33153021613989e-05,1.86712859605769e-05,3.90661626326133e-05
7.60506359328471e-06,1.25664470217488e-05,2.26658581386166e-05,4.28373687536501e-05
5.4624689063683e-06,9.77324328678832e-06,1.8133222268704e-05,3.33689344618606e-05
4.77768209514389e-06,6.50520124198574e-06,1.07616869455665e-05,2.20445702826961e-05
6.70839715314316e-06,8.29721075397576e-06,1.86223041623115e-05,3.36279120694305e-05
8.67205397805536e-06,1.151302582229e-05,2.39304143472151e-05,4.41154941475604e-05
1.01073343307982e-05,1.15037078121451e-05,1.74081840075487e-05,3.9019226150492e-05
7.93266627276486e-06,1.02529152718684e-05,1.5069683089894e-05,3.32552646345273e-05
6.84872870514678e-06,7.10221519302114e-06,1.0837549897674e-05,2.47884937958419e-05
5.48448815233837e-06,6.23020731227356e-06,9.85864710265208e-06,2.1573342567264e-05
4.74386302002359e-06,5.66338815225791e-06,9.41699900581521e-06,1.98242501780967e-05
4.29368076585819e-06,5.90431685841296e-06,9.25286761435637e-06,1.94508652386275e-05
4.54248004702495e-06,5.61524919581035e-06,1.0688208740044e-05,2.08459379828793e-05
1.30614181104492e-05,2.56833141865519e-05,5.15971106321874e-05,9.03418429291886e-05
4.57948972100852e-06,4.78021955871726e-06,1.03061683460195e-05,1.96658776257453e-05
1.21767724770968e-05,1.40353171984171e-05,1.63235214662597e-05,4.25356111417736e-05
1.37438548705854e-05,1.19241956110052e-05,2.07595954677056e-05,4.64276459492962e-05
5.01695653548613e-06,6.19070610662075e-06,1.57950226340301e-05,2.7002685276137e-05
3.48092962222098e-06,3.38488952368197e-06,9.53067713575414e-06,1.63964962816571e-05
5.78089038944675e-06,6.3908004318201e-06,1.57332752622804e-05,2.79049660835472e-05
7.38316205523679e-06,1.20065354928196e-05,1.46611190824426e-05,3.4050816630499e-05
7.2771905213599e-06,6.79898550709327e-06,1.49038053810177e-05,2.89799814094709e-05
5.19913083427908e-06,5.95092602194785e-06,1.16654039401772e-05,2.28154607964041e-05
5.54252956942109e-06,5.21899216567916e-06,1.49542377653484e-05,2.57157595004487e-05
7.49049974558438e-06,6.04556789759092e-06,1.72989357848976e-05,3.08350034280728e-05
4.52276877868183e-06,4.43951636650811e-06,1.14920221375365e-05,2.04543072827264e-05
7.65239512674353e-06,7.26392412469479e-06,1.28168170957488e-05,2.77331363471871e-05
4.41085275598791e-06,4.21827537863388e-06,1.05043070534902e-05,1.9133435188112e-05
1.20949279797216e-05,1.62729790754971e-05,2.96081889364317e-05,5.79760959916504e-05
4.64017614349963e-05,5.34744486676126e-05,8.34679503041191e-05,0.000183344160406728
1.91141400198116e-05,1.62896331172089e-05,3.58845152739499e-05,7.12882884109704e-05
4.96589571226631e-06,5.96732165170485e-06,1.48429982238193e-05,2.57762155877905e-05
1.20151661845196e-05,1.39388242378496e-05,2.37050345479922e-05,4.96590249703614e-05
4.54074126683726e-06,4.40877713780816e-06,1.31126292911873e-05,2.20621476958328e-05
3.35670409969384e-06,3.41552880350297e-06,9.56725972539509e-06,1.63394926285919e-05
3.12572483569804e-06,3.00961160134427e-06,8.91274402607482e-06,1.50480804631171e-05
3.15736533598926e-06,3.14524924554569e-06,9.31832846882808e-06,1.5620943050363e-05
3.22711819014773e-06,3.11333215059204e-06,8.74692349968782e-06,1.50873738404276e-05
3.18785645773077e-06,3.13891445400795e-06,8.7778804781361e-06,1.51046513898748e-05
3.08053141048925e-06,3.26420072946966e-06,8.55772654406177e-06,1.49024586840207e-05
3.1064391178635e-06,2.99259681121999e-06,8.89877668278421e-06,1.49978126118677e-05
1.45183351984539e-05,1.10880612615957e-05,1.76189542062979e-05,4.32253506663475e-05
2.49618418992376e-05,2.11877791760772e-05,3.12305621451079e-05,7.73801832204228e-05
2.92963829530751e-05,1.88494239935582e-05,2.7879166355866e-05,7.60249733024992e-05
1.55987012092745e-05,1.35344280677886e-05,2.76725565229517e-05,5.68056858000148e-05
9.25573550334001e-06,1.0201871521774e-05,2.04106740129094e-05,3.98682810380234e-05
1.28219037779567e-05,1.53684905725994e-05,2.2102205500028e-05,5.02925998505842e-05
5.80162275873171e-06,7.5397396371813e-06,1.52200243126884e-05,2.85613867086014e-05
5.97376344517848e-06,7.97043382295345e-06,1.38740450676709e-05,2.78182423358028e-05
1.84714225223671e-05,1.5015097980856e-05,2.14334370849353e-05,5.49199575881584e-05
7.19301727420453e-06,9.37763392934449e-06,1.72000611284496e-05,3.37707123319986e-05
7.1218597846609e-06,8.82578817372619e-06,1.47411878465007e-05,3.06888358048878e-05
7.10567710889213e-06,7.36123880660464e-06,1.63048840397342e-05,3.0771799955231e-05
1.20195375878039e-05,9.83237044152674e-06,1.66299064068667e-05,3.84818144361973e-05
6.01025127872877e-06,7.82098057995938e-06,1.71032473373761e-05,3.09344791960643e-05
1.05835627817779e-05,1.32173855146807e-05,1.8337624007101e-05,4.21385723035596e-05
1.31539913277706e-05,1.29969687262203e-05,2.62917404984143e-05,5.24427005524053e-05
3.03284826024112e-06,3.34190559476704e-06,9.39498383134903e-06,1.57697376863572e-05
3.03327649610465e-06,3.43567552668272e-06,9.23453149986078e-06,1.57034835226481e-05
6.51830672991345e-06,6.91674179032183e-06,1.33505823534298e-05,2.67856308736651e-05
5.25057347408558e-06,4.26739898354302e-06,1.29048729755235e-05,2.24228454331521e-05
4.21904209733534e-06,3.98093291029128e-06,9.87319439746046e-06,1.80731694050871e-05
3.34408051134518e-06,3.26357455176398e-06,8.3274352581589e-06,1.49350903212681e-05
3.31613037442834e-06,3.41386370035112e-06,8.09760989720065e-06,1.48276039719801e-05
7.18147323680958e-06,4.88505945472783e-06,1.01815394682644e-05,2.22480721598018e-05
1.27155521898681e-05,1.06962006032864e-05,1.74212940528869e-05,4.08330468460413e-05
9.34186678204231e-06,1.21387539299727e-05,1.96370439328351e-05,4.11176646448501e-05
5.21540132387399e-06,5.57523876853787e-06,1.52928325084569e-05,2.60834726008688e-05
5.89357268831409e-05,4.17842145085324e-05,7.58797526902252e-05,0.000176599694081899
4.81011814833752e-05,3.19119058033607e-05,6.16105051768747e-05,0.000141623592463611
1.18050698229263e-05,1.62150797790669e-05,3.2388781031927e-05,6.04089306339202e-05
4.0911450356755e-05,3.24679765031017e-05,5.14377606662209e-05,0.000124817187526078
1.34759470490849e-05,1.67687205833925e-05,3.85172851844297e-05,6.87619528169071e-05
2.06020570172378e-05,1.92611848870267e-05,3.22493033788789e-05,7.21125452831434e-05
2.45063499186347e-05,1.73832374934578e-05,3.1114100650766e-05,7.30036880628585e-05
2.16324967341283e-05,2.05203316271107e-05,3.70093442823694e-05,7.91621726436085e-05
7.30711649311627e-06,1.17613464506009e-05,2.72169594751914e-05,4.62854224189085e-05
1.69020780859034e-05,1.5845692529335e-05,2.98905686245297e-05,6.26383392397681e-05
1.07075764051247e-05,1.04197723604892e-05,2.91974522191484e-05,5.03248009847622e-05
6.93007415479735e-06,6.12820267399888e-06,2.14337238195516e-05,3.44920006483479e-05
2.01697888774389e-05,1.14502309367685e-05,2.72175245234512e-05,5.88375443376586e-05
7.86054234416662e-06,8.82250328024609e-06,2.1928325552839e-05,3.86113711772518e-05
1.53397978970728e-05,1.09308000394847e-05,2.52327760974379e-05,5.15033740339954e-05
2.48714592673414e-05,2.10512252429939e-05,2.76373869122162e-05,7.35600714225515e-05
1.22274809867623e-05,1.28812400834653e-05,2.28780835777071e-05,4.79868046479346e-05
1.11591982760988e-05,1.15654464410721e-05,2.00069545868585e-05,4.27315993040293e-05
9.38542794814928e-06,9.90831457830429e-06,2.09265157582478e-05,4.02202582847014e-05
1.11643736222906e-05,1.14363964207813e-05,2.06333301185101e-05,4.3234100161582e-05
1.64260981689542e-05,2.42109574194269e-05,3.81836678465595e-05,7.88207234349406e-05
1.09943358609042e-05,1.34524590859747e-05,2.63998237561287e-05,5.08466187030076e-05
1.81054797906604e-05,2.0296401649463e-05,2.58720998714949e-05,6.42739813116183e-05
1.10415037110568e-05,1.49710120835876e-05,2.22822041330118e-05,4.82947199276562e-05
1.15502574116386e-05,1.59285575735731e-05,2.59586663739088e-05,5.34374813591204e-05
1.00182009720916e-05,1.21838067351868e-05,2.08210340102681e-05,4.30230417175466e-05
1.30650212238578e-05,1.73756667553009e-05,2.63327785863537e-05,5.67734665655124e-05
5.61743291657264e-06,5.5725084355911e-06,1.17226760781436e-05,2.29126174303073e-05
4.06376749945708e-06,3.53462819858074e-06,9.65456960254405e-06,1.72529653005819e-05
3.84759760456856e-06,3.44311808264162e-06,8.94976049769322e-06,1.62404761849034e-05
3.89082911873873e-06,3.41526950616207e-06,9.1343502096797e-06,1.64404488345805e-05
5.34188764510415e-05,2.63011272934057e-05,4.56195585948156e-05,0.000125339562339263
7.08264380223936e-05,4.98650701074624e-05,5.82104782138791e-05,0.000178901986343735
0.00045544888393133,0.000463611372547163,0.000369631451394914,0.00128869170787341
0.00011199764095853,0.0002044609978107,0.000146055963888314,0.000462514602657544
0.000208160113940685,0.00014436901742717,0.000226766006004126,0.000579295137371981
0.000132104825994294,9.46200221620177e-05,0.000222061651380253,0.000448786499536565
0.000269860041715778,0.000316997830299094,0.000221353874130222,0.000808211746145095
7.57111375006445e-05,7.91056500286255e-05,8.91573029833557e-05,0.000243974090512626
0.000280538505547124,0.000754164607218791,0.000482798601081648,0.00151750171384756
0.000638407975079075,0.00352275663930896,0.00202658988970293,0.00618775450409096
0.000513943627951916,0.00350333783956096,0.00161735567160363,0.00563463713911651
0.000320517755082427,0.00187667070854619,0.0008966557697826,0.00309384423341121
0.00093128592282623,0.00477257321802172,0.00237687431110609,0.00808073345195403
0.00152459007978263,0.00793967086394025,0.00497811689677724,0.0144423778405001
0.0013387454905187,0.0068096288820445,0.00544932665909173,0.0135977010316549
0.00213335988166037,0.00734115049037506,0.00510181973213721,0.0145763301041726
0.00234624590656436,0.00815381412795283,0.00357920331715125,0.0140792633516684
0.00293592596804583,0.0084041824529465,0.00809745174509161,0.0194375601660839
0.00303908885027189,0.0112673226531765,0.00806538861783184,0.0223718001212802
0.0026408284289687,0.0114233942686077,0.00751302262190756,0.021577245319484
0.00217415268581029,0.010458719776692,0.00655999894664539,0.0191928714091477
0.00225215574117496,0.0104823579103979,0.00672884272810798,0.0194633563796808
0.00190475941585561,0.00889162121825064,0.00588417034832539,0.0166805509824316
0.00260341082928631,0.0111592806271035,0.007690513014052,0.0214532044704418
0.00247667563506985,0.0119965697073263,0.00688149351413663,0.0213547388565328
0.00199573430971088,0.010911936196327,0.00515350341846467,0.0180611739245025
0.00202215318226009,0.00933687674309676,0.00536563498014509,0.0167246649055019
0.00262590056820991,0.00977158540094677,0.00576696677161719,0.0181644527407739
0.00120349480396494,0.00709991816673283,0.00500141072776494,0.0133048236984627
0.00095864406681882,0.00268574463071285,0.00145848368775511,0.00510287238528677
0.00128637223049002,0.00733347819584734,0.00320269714921647,0.0118225475755538
0.00129914118523731,0.00644375332247528,0.004048616605037,0.0117915111127496
0.000525919959388998,0.00296463359168692,0.00143968427634857,0.00493023782742448
0.000360822068470931,0.00211382495623269,0.00114423628652297,0.00361888331122659
0.000359298790197482,0.00200726347250935,0.000998133070982932,0.00336469533368976
0.000386846417540274,0.0018334351701743,0.000955365289417086,0.00317564687713166
0.000491159392574558,0.00291147208981129,0.00135605406196965,0.00475868554435549
3.08440506958223e-05,2.96127505562867e-05,7.76979449004255e-05,0.000138154746152534
0.000236561813635311,0.000360242624905098,0.000300519657970693,0.000897324096511102
0.00023541796283165,0.00024100825522197,0.000267377101929684,0.000743803319983304
8.37511312069147e-05,0.000116689275311833,0.000106561171496784,0.000307001578015532
0.000293207109552752,0.000414368921457851,0.000231968765418589,0.000939544796429191
0.000117469027762361,6.93919206666217e-05,0.000135580531012,0.000322441479440983
5.37838264642329e-05,2.94944635929939e-05,6.99522714810235e-05,0.00015323056153825
2.65011495964448e-05,4.6505284346798e-05,0.000108997217831064,0.000182003651774306
1.41967124068546e-05,1.62893358062326e-05,3.1992330714767e-05,6.24783789278542e-05
3.69590454673572e-05,3.57752937558505e-05,4.35387787860833e-05,0.000116273118009291
2.43579030501145e-05,2.58191329395551e-05,4.40384026246848e-05,9.42154386143545e-05
4.55752740718047e-06,4.49816443907888e-06,1.15912150914294e-05,2.06469069376887e-05
7.60310689074281e-06,9.97893887524917e-06,1.54539564876502e-05,3.30360022536421e-05
7.74310220790553e-05,5.10248637742772e-05,7.5364994727133e-05,0.000203820880580466
7.10901323852326e-05,3.56272334988738e-05,6.08277126415691e-05,0.000167545078525676
2.24823184233432e-05,1.1890656420717e-05,2.56356211837487e-05,6.00085960278089e-05
0.000267506205338087,0.000209839239061635,0.000151308368842373,0.000628653813242096
2.33418062250787e-05,2.05984083462097e-05,3.1941836378852e-05,7.58820509501405e-05
5.50146713751883e-06,5.41533725298661e-06,1.13790996233861e-05,2.22959040138915e-05
7.58694037064799e-06,1.25142946126377e-05,1.81220249098515e-05,3.82232598931372e-05
1.0938169808666e-05,1.58057673543305e-05,2.47770944451253e-05,5.15210316081217e-05
9.90636354290675e-06,9.41955833075272e-06,1.66433241101827e-05,3.59692459838422e-05
2.21582182054174e-05,1.88469578940902e-05,3.2595531113889e-05,7.36007072133966e-05
4.99689137887474e-06,5.10359587000783e-06,1.13209105035113e-05,2.14213977523939e-05
1.04578912423035e-05,1.06290429649084e-05,1.5555608344756e-05,3.66425425519679e-05
1.16965122728846e-05,9.92631341250151e-06,1.7736043742218e-05,3.9358869427604e-05
4.32883853033117e-05,3.84058294424517e-05,4.27652257565288e-05,0.000124459440502292
6.41518041265584e-06,4.53167818927412e-06,1.38950183535068e-05,2.48418769554368e-05
2.36895335663325e-05,1.86424388239079e-05,2.52233786862838e-05,6.75553510765242e-05
5.55853423291426e-06,4.13015839065621e-06,1.38151520746495e-05,2.350384469822e-05
4.98546811486796e-06,3.95043816397387e-06,1.23160065983196e-05,2.12519128771614e-05
5.60794470035588e-06,6.99647109403037e-06,1.47130875312445e-05,2.73175033256308e-05
3.57001337697174e-06,3.09459674108868e-06,1.08373191075371e-05,1.75019292255975e-05
4.58407597847674e-06,4.03644353304047e-06,1.12105980834068e-05,1.9831117594924e-05
9.77491295929101e-06,8.95165135848548e-06,2.25645212238128e-05,4.12910855415893e-05
1.08841865011126e-05,9.21103655806753e-06,1.54136976741641e-05,3.55089207333442e-05
3.68172299391202e-06,3.28956929767265e-06,1.01749122912053e-05,1.714620458279e-05
3.37905682256092e-06,3.16366857099922e-06,9.74962949309458e-06,1.62923548866547e-05
3.56495034810689e-06,3.28220513314162e-06,1.05184760940077e-05,1.73656315752562e-05
3.63666655287072e-06,3.00192998866058e-06,8.76284605232132e-06,1.54014425938526e-05
5.36466289067748e-06,4.48960853442525e-06,1.1789692243914e-05,2.16439636690168e-05
4.60612604119383e-06,3.99265593732845e-06,1.16269756285021e-05,2.02257576070244e-05
7.71941365527897e-06,8.09010387018913e-06,1.78559805184005e-05,3.36654980438686e-05
8.20467799573095e-06,1.107357188643e-05,1.94022586836207e-05,3.86805085657816e-05
5.57423938484648e-06,6.92158894508294e-06,1.54238147810965e-05,2.79196431110259e-05
3.48054364288659e-06,3.05185344352734e-06,9.43035945923175e-06,1.59627565456457e-05
3.9984407294795e-06,3.31126281101771e-06,1.01370526968998e-05,1.7446756237397e-05
4.65562440778886e-06,4.14637591552978e-06,1.15149326607515e-05,2.03169329840702e-05
5.48293205373385e-06,4.94507669036653e-06,1.38842674629216e-05,2.4312276207022e-05
3.80539050655552e-06,3.1025085955922e-06,1.02077735867242e-05,1.71156726888719e-05
4.02159837946815e-06,3.1501186763067e-06,1.0694730571576e-05,1.78664476273509e-05
6.24474484431956e-06,4.80966179906082e-06,1.33386042258315e-05,2.43930108692118e-05
5.76341850882244e-06,6.69420373853561e-06,1.46593229795949e-05,2.71169452269529e-05
5.63364587988129e-06,5.66231799458556e-06,1.23110428757566e-05,2.36070067502234e-05
5.11966036139988e-06,5.82945716488924e-06,1.30058041771229e-05,2.39549217034121e-05
6.21825489172246e-06,5.54888228060142e-06,1.48975512461323e-05,2.66646884184562e-05
4.17904379698977e-06,3.62302765713123e-06,1.08528692983428e-05,1.86549407524638e-05
4.16339947911243e-06,3.93788799948697e-06,1.14541234708265e-05,1.95554109494259e-05
7.67745297390501e-06,9.97931066456287e-06,1.71968862726451e-05,3.48536499111129e-05
8.85038432419381e-06,9.74069606963119e-06,1.52610673848093e-05,3.38521477786343e-05
2.21721408555069e-05,1.86407637717144e-05,2.96094623882929e-05,7.04223670155143e-05
1.14785985784058e-05,1.48751829029493e-05,1.52823622727058e-05,4.16361437540609e-05
7.08381319963562e-06,9.07428420039617e-06,1.2429835959344e-05,2.85879333593757e-05
1.30444247880134e-05,1.56705142678059e-05,2.04971363547669e-05,4.92120754105863e-05
7.36933597247674e-06,8.07229713359928e-06,1.55302058751471e-05,3.09718389812231e-05
1.76120630454565e-05,1.42916276627347e-05,2.11358605999461e-05,5.30395513081373e-05
5.5666940948909e-06,4.80483590503388e-06,1.23074180750836e-05,2.26789480750083e-05
7.48113632883474e-06,7.61386670256917e-06,1.35923511424285e-05,2.86873541738324e-05
5.18736628206673e-06,4.9170526666555e-06,1.14494263545252e-05,2.15538453032474e-05
4.58053446133419e-06,3.1505357152529e-06,1.07623251405595e-05,1.84933953171466e-05
5.70131714351191e-06,7.35483809554333e-06,1.43426670679915e-05,2.73988223070468e-05
6.21559134230978e-06,4.52334716229025e-06,1.07824135332903e-05,2.15213520378903e-05
4.24067694220339e-06,3.34678363602824e-06,9.95698197117902e-06,1.75444425494107e-05
5.25691742345027e-06,3.80163868398333e-06,1.09920596302164e-05,2.005061573765e-05
8.54596290793099e-06,1.22921226878426e-05,2.29752692064491e-05,4.38133548022226e-05
4.49939141606285e-06,4.25472918228115e-06,1.091456107053e-05,1.9668681668874e-05
6.04419681832108e-06,4.67397072996857e-06,1.29303122632668e-05,2.36484798115565e-05
4.77671849609877e-06,4.74601934537116e-06,1.15286539159497e-05,2.10513917574197e-05
9.54416395274282e-06,8.26404856499034e-06,1.64907653180328e-05,3.42989778357659e-05
5.20905719251696e-06,4.8506002630086e-06,1.11933180898933e-05,2.12529755454189e-05
5.21850701754056e-06,5.28714801930214e-06,1.01201180261128e-05,2.06257730629555e-05
4.39228819890919e-06,3.84738417171009e-06,1.0129746155368e-05,1.83694185259873e-05
6.61573426273996e-06,7.71692664269889e-06,1.16274457825795e-05,2.59601066880183e-05
6.8346494009868e-06,7.22421631484811e-06,1.31330679105541e-05,2.7191933626389e-05
8.36104030700736e-06,7.64770452539062e-06,1.3564826848546e-05,2.9573571680944e-05
1.05198417499338e-05,1.10365631765966e-05,1.63996784394004e-05,3.79560833659309e-05
4.516870742081e-06,3.65795355970247e-06,1.11632102104805e-05,1.9338034512264e-05
4.09143048649849e-06,3.81433826125906e-06,1.03243086928101e-05,1.82300774405677e-05
4.46429718131878e-06,3.60243973234357e-06,1.03427836058863e-05,1.84095205195487e-05
6.21236258415736e-06,2.76004245818633e-05,2.55876159034866e-05,5.94004030695073e-05
5.5782580439955e-06,5.01088933270041e-06,1.26834144065735e-05,2.32725617832694e-05
5.33885006815664e-06,4.23076475764984e-06,1.333043944074e-05,2.29000542665465e-05
7.4210642744571e-06,6.85222284734358e-06,1.46703833486542e-05,2.89436704704548e-05
6.26358817066356e-06,5.42714499432574e-06,1.37103456393301e-05,2.54010788043194e-05
5.26290140927847e-06,4.33048301907761e-06,1.26569219600255e-05,2.22503063883816e-05
4.63294697163417e-06,3.56439258938371e-06,1.12678477234694e-05,1.94651872844872e-05
7.85667023439997e-06,9.06342936176727e-06,1.89443964237403e-05,3.58644960199076e-05
7.62149992835285e-06,8.61514362078748e-06,1.45163541918151e-05,3.07529977409554e-05
4.86221751581296e-06,4.1081984864607e-06,1.24386775182187e-05,2.14090935204923e-05
5.20205730904563e-06,4.00485999447215e-06,1.20667597548827e-05,2.12736770584004e-05
9.27897921657758e-06,1.03169437901543e-05,1.5441587048997e-05,3.50375100557289e-05
1.06624251415485e-05,9.1042927855005e-06,1.68334241677023e-05,3.66001420947513e-05
1.15040010554158e-05,1.90210830523136e-05,3.86871423804936e-05,6.9212226488223e-05
4.57871135010894e-06,4.39162302460054e-06,1.0673474060138e-05,1.96438084348474e-05
7.71179864582547e-06,5.97629077160659e-06,1.33608983279887e-05,2.70489877454207e-05
1.21099734885446e-05,8.51440685502216e-06,1.66141339545212e-05,3.72385142980879e-05
3.46665595889955e-06,2.8630113234285e-06,8.90745458589403e-06,1.52371218682221e-05
6.26821226820096e-06,3.95294968538086e-06,1.19332858121331e-05,2.2154447765715e-05
6.51574051283514e-06,5.38567435512974e-06,1.17829377583898e-05,2.36843526263547e-05
1.28815363473736e-05,1.16427616902168e-05,2.05885374938404e-05,4.51128355314309e-05
7.69171254633332e-06,6.29494423776634e-06,1.37919843590123e-05,2.7778641143112e-05
4.8880031263471e-06,4.53214997485348e-06,1.26296216764332e-05,2.20497747776338e-05
4.90898388431455e-06,3.93655531108232e-06,1.13596914117922e-05,2.02052306071891e-05
5.14924177266155e-06,4.01098618293084e-06,1.18982494776926e-05,2.1058477433285e-05
7.36074142551013e-06,4.54219482080983e-06,1.41061480774714e-05,2.60090843237914e-05
9.31095471670657e-06,6.8927149706368e-06,1.44004570743802e-05,3.06041267617236e-05
7.51896731379341e-06,1.0775018535451e-05,1.73077759751916e-05,3.56017618244361e-05
8.70363404393685e-06,7.87851896423107e-06,1.42275984834358e-05,3.08097514916037e-05
1.53748617993538e-05,1.0696727235095e-05,2.05964866759605e-05,4.66680757104093e-05
3.66548976608228e-05,3.70147696820555e-05,5.4135405748531e-05,0.000127805073091409
8.52471853143916e-06,7.92528907555844e-06,1.6304087067639e-05,3.27540946746366e-05
6.149266882295e-06,4.37350402563251e-06,1.07862729773325e-05,2.130904388526e-05
6.5032127571765e-06,4.5115588599873e-06,1.32645800274375e-05,2.42793516446013e-05
6.9748958290341e-06,7.76379874032794e-06,1.23587895359786e-05,2.70974841053406e-05
6.19011371607584e-06,5.97142198651517e-06,1.29125345534159e-05,2.50740702560069e-05
1.09629543174683e-05,1.14511496063214e-05,1.76569134987755e-05,4.00710174225652e-05
2.26554048516762e-05,2.96307142033072e-05,2.79545551579162e-05,8.02406742128996e-05
1.75285822769018e-05,1.55386188395489e-05,2.76038791325512e-05,6.06710802490018e-05
4.0177490239319e-06,3.72148349719876e-06,1.09061354778119e-05,1.86453679989426e-05
1.01771691340716e-05,9.31011676815208e-06,1.81566148982367e-05,3.76439008004604e-05
6.55567884386217e-06,6.33036368804999e-06,1.5607430418628e-05,2.84934729505401e-05
8.1504454899435e-06,7.78488160290391e-06,1.59376538906041e-05,3.18729809834515e-05
1.01934724182147e-05,1.07222990882123e-05,1.6364357949836e-05,3.7280129456263e-05
1.29635674060479e-05,1.35837467420137e-05,2.25130652269907e-05,4.90603793750524e-05
9.23163118592858e-06,8.25313297059491e-06,1.90959484335259e-05,3.65807125900493e-05
3.2307521489021e-05,2.4902178004371e-05,5.75446851456185e-05,0.00011475438463901
1.91411026421763e-05,2.91291398763146e-05,3.5148430952293e-05,8.34186734707839e-05
9.57892379062803e-06,1.37391950217144e-05,2.40675773172408e-05,4.73856961295832e-05
5.56861374859643e-06,5.88941510945994e-06,1.22289661692645e-05,2.36869950273208e-05
9.82267683751921e-05,9.38223058365291e-05,8.35477726866735e-05,0.000275596846898395
9.35001890968738e-05,6.87627228269719e-05,6.86516064992413e-05,0.000230914518423087
5.12544394414558e-05,4.58786845301388e-05,9.73938159634156e-05,0.00019452693993501
1.10457500335617e-05,7.98404714645583e-06,1.68377697399627e-05,3.58675669199802e-05
0.000192011265928563,0.000768568453556961,0.000501828654599083,0.00146240837408461
1.20887897757051e-05,9.28418070305489e-06,2.61538315533009e-05,4.75268020320609e-05
6.64089665683374e-06,4.71926167602469e-06,1.22569435536514e-05,2.36171018865099e-05
8.03293213750922e-06,4.40460462306956e-06,1.16272260938692e-05,2.40647628544479e-05
5.49268513185858e-06,3.82074479504057e-06,1.02019583872484e-05,1.95153883141475e-05
4.43735460990891e-06,3.9023560635074e-06,1.04600621876668e-05,1.87997728610831e-05
1.74185175383908e-05,1.6166738681959e-05,2.76120973235216e-05,6.11973535438714e-05
4.9678707467604e-05,3.9916423883241e-05,4.66077841924166e-05,0.000136202915543262
7.04437751778339e-06,1.19797136164493e-05,1.6502033931755e-05,3.55261250659877e-05
7.32217943739496e-06,1.03944515081568e-05,1.63611522701352e-05,3.4077783215687e-05
4.91111578608826e-06,8.18760871376494e-06,1.4158589948666e-05,2.72573144485192e-05
2.46917887586468e-05,8.43599112719337e-06,1.45476203126242e-05,4.76754001984643e-05
7.34102781391866e-06,9.18664697070526e-06,1.75179505455475e-05,3.40456253301714e-05
2.94995568448495e-05,2.33902568157418e-05,2.68630830627375e-05,7.97528967233287e-05
7.45272337968007e-06,8.36989063856585e-06,1.69605981545215e-05,3.27832121727674e-05
8.68107182637382e-06,1.34537828926309e-05,1.90636982555591e-05,4.11985529745638e-05
2.10237535059306e-05,1.86350214711649e-05,2.2879657095772e-05,6.25384320728675e-05
4.97676754769566e-05,4.61536816735162e-05,4.79029309069816e-05,0.000143824288057455
0.000101872969267711,0.000127471473945171,9.89992302329809e-05,0.000328343673445863
9.95236158992353e-06,9.64724580403317e-06,1.70122030218579e-05,3.66118104158146e-05
8.10939652118868e-06,8.56252871893565e-06,1.83617506170782e-05,3.50336758572025e-05
6.26981489689447e-06,8.15922162235559e-06,1.63643210563412e-05,3.07933575755913e-05
8.99934633350916e-06,7.62082035755014e-06,1.41926983748803e-05,3.08128650659396e-05
1.70567353702621e-05,1.23712808812615e-05,2.52726473286277e-05,5.47006635801514e-05
5.84733661763411e-05,4.37655141268291e-05,5.89404478618391e-05,0.000161179328165009
1.61375638821151e-05,1.90577293424079e-05,2.65238795415595e-05,6.17191727660824e-05
1.90541638472295e-05,1.36808836917594e-05,2.61334336138281e-05,5.88684811528171e-05
1.23858786074541e-05,9.11318245672409e-06,1.79975904133933e-05,3.94966514775715e-05
1.00154198908573e-05,7.46578347003634e-06,1.45192414778356e-05,3.20004448387292e-05
3.2274519047304e-05,2.56114993406137e-05,2.76156136855961e-05,8.55016320735137e-05
7.66127414372006e-05,6.18310481963725e-05,7.02846036189657e-05,0.000208728393252539
1.29520067822601e-05,2.8879284220811e-05,2.80648674711245e-05,6.98961584741956e-05
8.72640570373747e-06,9.44546990371731e-06,1.71492746548453e-05,3.53211502623001e-05
1.23526360181788e-05,2.95191568342806e-05,3.57345176530008e-05,7.76063105054603e-05
2.49796261831423e-05,2.94587716984668e-05,4.4000779627635e-05,9.84391775092441e-05
3.19999626984473e-05,2.35489804128443e-05,3.23367340387468e-05,8.78856771500384e-05
1.1788085235761e-05,8.92747458663945e-06,1.75310338426355e-05,3.8246593665036e-05
1.19552428085986e-05,8.78964174686335e-06,2.03320896545571e-05,4.1076974210019e-05
4.55715291739457e-05,5.01526009982302e-05,5.39742376316314e-05,0.000149698367803807
2.21007075429463e-05,2.09217867365499e-05,2.53772571700661e-05,6.83997514495624e-05
9.59060241257877e-06,8.18125736173682e-06,1.56220940939199e-05,3.33939538682355e-05
1.63208164154847e-05,1.41395914806934e-05,2.4593185430729e-05,5.50535933269072e-05
1.20495323031778e-05,1.19695769515441e-05,2.00642991369088e-05,4.40834083916307e-05
8.35231200482842e-06,7.86751134801843e-06,1.63844575321373e-05,3.26042808849842e-05
2.05044922231883e-05,1.77655619979377e-05,2.6147076356217e-05,6.4417130577343e-05
8.68599826031715e-06,7.96792871334693e-06,1.68071459488318e-05,3.34610729224959e-05
8.71096797933904e-06,7.10125045480469e-06,1.57146956158988e-05,3.15269140500425e-05
8.39545883762523e-06,6.0475268878227e-06,1.25571339623923e-05,2.70001196878402e-05
1.02986535462581e-05,9.30816633895432e-06,1.51130700182947e-05,3.47198899035071e-05
1.10120982107358e-05,1.31822077999241e-05,1.61724364407888e-05,4.03667424514487e-05
5.14726473784379e-06,6.6360106170282e-06,1.47271956012796e-05,2.65104709561516e-05
5.40988099502985e-06,4.93996434623545e-06,1.20591982595395e-05,2.24090436008048e-05
1.08087586321989e-05,9.12073976753521e-06,1.4802661326647e-05,3.47321597263811e-05
1.10509087902626e-05,1.12780194740086e-05,1.6351320966309e-05,3.86802492305801e-05
1.23041819172578e-05,1.03790838773372e-05,2.40642893117485e-05,4.67475551063436e-05
4.61671355654188e-05,4.23758516897786e-05,5.26512852431363e-05,0.000141194272498334
3.08645058963662e-05,2.1086733594682e-05,2.44184441174139e-05,7.63696836084621e-05
2.00659004366096e-05,1.47333105571385e-05,2.94928060907356e-05,6.42920170844837e-05
1.81700334489621e-05,1.66982969955724e-05,3.13012507773141e-05,6.61695812218486e-05
5.89489461281504e-05,5.37718294739986e-05,6.97625054141623e-05,0.000182483281016311
9.99822187694003e-06,6.36525264888833e-06,1.53415795855488e-05,3.17050541113772e-05
5.30865673960266e-06,3.92227066801617e-06,1.14658442311522e-05,2.0696771638771e-05
2.06313681569675e-05,1.75292910435055e-05,3.039651633138e-05,6.8557175531853e-05
1.9833926216685e-05,2.11278210159084e-05,2.53906895812998e-05,6.63524368138932e-05
2.79630883856851e-05,2.05518103965998e-05,2.50028926656738e-05,7.35177914479587e-05
1.53534621728128e-05,9.95416156524216e-06,1.3899746352464e-05,3.9207370090519e-05
1.58148372832265e-05,7.10479369001893e-06,1.21574254251453e-05,3.50770563983908e-05
1.38313446136112e-05,8.30705254294281e-06,1.34288332859088e-05,3.55672304424628e-05
1.47768797776852e-05,9.29399580408578e-06,1.7573668630911e-05,4.1644544212682e-05
1.65835571259946e-05,9.66678205797816e-06,1.53173479379143e-05,4.1567687121887e-05
1.58449061777296e-05,7.44208857028184e-06,1.26964075196085e-05,3.59834022676199e-05
1.21690906433576e-05,6.73736332191573e-06,1.24202909740725e-05,3.13267449393458e-05
1.29265816030219e-05,1.06439120384621e-05,1.71035013580843e-05,4.06739949995682e-05
1.1628643425753e-05,1.12415171687759e-05,1.83676490185607e-05,4.12378096130896e-05
1.24807620861657e-05,1.18826128327878e-05,2.57871700361867e-05,5.01505449551401e-05
1.95214879173537e-05,3.20509104106664e-05,3.54746430597647e-05,8.70470413877848e-05
1.0020473345978e-05,1.80116521856368e-05,2.25541389587354e-05,5.05862644903502e-05
3.99956268397992e-06,3.89219595821924e-06,9.44905160098592e-06,1.73408102431851e-05
2.71046399870617e-05,2.41911383856152e-05,2.70494225981659e-05,7.83452009708428e-05
3.78231798965691e-06,3.62395323665191e-06,1.11000635546184e-05,1.85063347809273e-05
3.98081182648694e-06,3.64170639617516e-06,1.05985916779019e-05,1.8221109900564e-05
3.95698423512155e-06,5.15308501398284e-06,9.70977678845474e-06,1.88198460375591e-05
3.94452078597574e-06,4.12024091024811e-06,9.34271170887449e-06,1.74074734050983e-05
3.32200168945619e-06,3.46713392448904e-06,8.09329665522811e-06,1.48824322691733e-05
3.41301543151855e-06,3.46091064793931e-06,8.5642567364347e-06,1.54381828158926e-05
3.00982445948514e-06,2.84207650391096e-06,7.54409891541168e-06,1.33959998788078e-05
2.30707954447011e-05,1.16900765786235e-05,2.13896134001238e-05,5.61504854234484e-05
3.2080125756322e-06,3.29130022364006e-06,7.80896055398259e-06,1.43082733532549e-05
7.0197855074296e-06,6.85624513244353e-06,1.31160696607157e-05,2.69921003005888e-05
2.02091116799373e-05,2.25236515221169e-05,3.73343854907908e-05,8.0067148692845e-05
1.09621579799053e-05,1.04753151723137e-05,1.57387270297585e-05,3.71762001819775e-05
2.29795292788521e-05,2.73296826862428e-05,3.65556129802403e-05,8.68648249453353e-05
1.40776159958538e-05,1.63927173914237e-05,2.26152084257854e-05,5.30855418130629e-05
1.57879646594214e-05,1.24442102320263e-05,1.89126834437095e-05,4.71448583351572e-05
6.14294215291633e-06,8.08099454016654e-06,1.63065838165227e-05,3.05305205096056e-05
5.04783917119179e-06,5.27802936212809e-06,1.12445984057218e-05,2.15704669390417e-05
4.34251120319721e-06,4.23163158002346e-06,8.42147014760162e-06,1.69956129308223e-05
4.6952691899871e-06,4.0191866351399e-06,9.22036888824092e-06,1.79348247133679e-05
7.1900840386607e-06,5.74416222972163e-06,1.20575510172477e-05,2.499179728563e-05
3.70506141991766e-06,4.1488856901412e-06,9.07636874827113e-06,1.693031585833e-05
4.72660836683218e-06,4.05272507370128e-06,9.15852437095085e-06,1.79378578114843e-05
5.43964279110026e-06,4.48724598812816e-06,1.00882611440211e-05,2.00151499232495e-05
3.48317272211964e-06,3.49279093834662e-06,9.293666608306e-06,1.62696302687723e-05
1.32709704256213e-05,7.3823311227491e-06,1.64453578205793e-05,3.70986593689497e-05
8.63985084719022e-05,6.60920292743078e-05,8.37675766810493e-05,0.000236258114427259
3.22164640095197e-05,3.35234894406815e-05,4.51120928202854e-05,0.000110852046270487
1.31209424809412e-05,1.37883932192616e-05,1.70839525268219e-05,4.39932882270247e-05
1.03617322345307e-05,1.18295241216037e-05,1.71567182648774e-05,3.93479746210118e-05
3.30852723332886e-06,3.60074032346394e-06,8.86715159295631e-06,1.57764191497491e-05
5.13624120335968e-06,4.75295750623195e-06,9.94112981041164e-06,1.98303285200033e-05
3.11796356274317e-06,2.99304442699144e-06,7.87739179515107e-06,1.39883997848857e-05
3.10839668058955e-06,2.97104222650358e-06,7.5308901648927e-06,1.36103290719858e-05
3.38740476404174e-06,3.3104480865209e-06,8.95231254695229e-06,1.56501653975149e-05
3.26343414289081e-06,2.84680771721723e-06,7.70333940059674e-06,1.38135812607048e-05
3.46745551078296e-06,3.23306968058843e-06,8.37938506125161e-06,1.5079910252623e-05
4.76772525683262e-06,4.57204289429579e-06,9.1296024947827e-06,1.84693706459111e-05
3.46887515434646e-06,3.07741258140164e-06,7.98241364034768e-06,1.45287013760958e-05
3.25079205675338e-06,2.90752111484767e-06,8.55357977173408e-06,1.47118929433351e-05
3.77675508166421e-06,3.92254339016778e-06,1.23747352205755e-05,2.00740336924075e-05
9.06548145493591e-06,4.89007670321213e-06,1.17517467830552e-05,2.57073049412033e-05
5.24727412547755e-06,6.29439729108745e-06,1.41693262220561e-05,2.57109976386211e-05
3.41044805608561e-06,2.99093148794399e-06,8.13987966173062e-06,1.45412592057602e-05
4.1622770314358e-06,5.48941045194244e-06,1.51456065306957e-05,2.4797294014074e-05
5.18222350726957e-06,6.21118347732669e-06,1.54805608973361e-05,2.68739678819324e-05
3.93844201913129e-06,3.47583736651499e-06,8.57549784250937e-06,1.59897772281556e-05
3.9217806450602e-06,3.76154888827536e-06,9.30228630111277e-06,1.69856158344483e-05
5.10555293460282e-06,7.13053167094246e-06,1.06399520788544e-05,2.28760366843997e-05
4.42810376373482e-06,3.52240256899341e-06,8.85383379433411e-06,1.68043401270623e-05
3.68618985923621e-06,3.32260253758703e-06,8.82947630090736e-06,1.58382686977306e-05
4.15551679788555e-06,4.20219098772089e-06,9.91272168037132e-06,1.82704294659778e-05
2.69258108646423e-05,3.88465347587948e-05,3.63077737766809e-05,0.000102080119400118
1.70954604376257e-05,1.57540589315354e-05,4.25491438788544e-05,7.53986632480155e-05
3.42308474453509e-05,3.81166518135191e-05,5.64408037026912e-05,0.000128788302961561
8.19110778009114e-05,8.46180530791295e-05,5.43456642117504e-05,0.000220874795091791
7.40076635472666e-06,7.44842197872081e-06,1.65765473081771e-05,3.14257356416246e-05
3.62296478613508e-06,3.05708179120827e-06,1.02517930304854e-05,1.69318396078287e-05
5.66083512777193e-06,4.59102144845445e-06,1.45130030586504e-05,2.47648596348767e-05
4.99660031272895e-06,3.94794315435164e-06,1.05282388489602e-05,1.94727823160408e-05
3.01195408312865e-05,2.19419869093215e-05,3.15138033772306e-05,8.35753311178386e-05
1.53343751213305e-05,1.00207914971896e-05,1.72208880765586e-05,4.25760546950786e-05
7.91312269227656e-06,4.01381345978759e-06,8.28047736637929e-06,2.02074135184434e-05
4.92678019852998e-06,5.31936178217907e-06,1.47530790029734e-05,2.49992209836824e-05
4.07815520374934e-06,3.2636298731062e-06,8.01282270975383e-06,1.53546077866094e-05
4.24932573918654e-06,4.04159715596849e-06,1.04177219059184e-05,1.87086448010734e-05
5.97447416950653e-06,4.38426693201072e-06,1.0907904669212e-05,2.12666457707293e-05
4.21097247057684e-06,3.64449496732334e-06,8.59409225142869e-06,1.64495596893289e-05
7.09246197873086e-06,5.77621963298191e-06,1.50889503231573e-05,2.79576319348701e-05
5.36905358090442e-06,5.55957736111868e-06,1.17332105267845e-05,2.26618414688076e-05
3.23916960357767e-06,2.93357948611195e-06,7.99276484731082e-06,1.41655139370004e-05
5.6749241114222e-06,4.33612509074751e-06,9.4654631143003e-06,1.947651231647e-05
1.09145361402354e-05,9.41518949700933e-06,1.42676411850412e-05,3.4597366822286e-05
5.04256668662822e-06,3.8444165343589e-06,1.03173228959868e-05,1.92043061169739e-05
1.02225755264306e-05,6.1355861757024e-06,1.4461813604781e-05,3.08199753069139e-05
6.00473363633056e-06,5.62597168958433e-06,1.32435027254118e-05,2.48742080513267e-05
1.57988898676797e-05,3.50838624944087e-05,7.12635617655433e-05,0.000122146314127632
3.28437173444336e-05,4.07914739654499e-05,8.83216941993478e-05,0.000161956885509231
1.3308538232917e-05,1.44494385533643e-05,3.51311477648747e-05,6.28891245511561e-05
7.12995581336126e-06,9.25536016916147e-06,2.17398502532615e-05,3.81251662357843e-05
7.00641361733071e-06,6.20011032899444e-06,1.40210946983993e-05,2.72276186447244e-05
6.78136804602762e-06,6.59758385219349e-06,1.81241538704404e-05,3.15031057686615e-05
9.04986571910422e-06,1.05022874379969e-05,1.8375326979111e-05,3.79274801362121e-05
1.61506504315358e-05,1.44902660709692e-05,2.39517822027768e-05,5.45926987052818e-05
3.18346795075546e-05,3.41925331137929e-05,4.82634883492784e-05,0.000114290700970626
1.5005269218664e-05,1.84965283946639e-05,3.08870919524546e-05,6.43888895657826e-05
2.97404192412446e-05,2.92149214173508e-05,5.28899809557565e-05,0.000111845321614352
5.61070283673532e-06,5.94792474126779e-06,1.25180084485178e-05,2.40766360265209e-05
7.36804914112602e-06,6.99679951558012e-06,1.20833656197633e-05,2.64482142764694e-05
6.28425153798893e-06,5.41862177094987e-06,9.70766504617894e-06,2.14105383551177e-05
1.52598877877296e-05,1.84968014256598e-05,2.30095028554139e-05,5.67661920688033e-05
8.25917694166826e-06,6.51649351190696e-06,1.20936450490965e-05,2.68693155026717e-05
5.57025169920146e-06,5.34906217300251e-06,1.26511608209975e-05,2.35704746932014e-05
4.72095642925431e-06,3.53063418660288e-06,8.68452972142752e-06,1.69361203372847e-05
4.70859946928099e-06,4.42445988400371e-06,9.92721557653948e-06,1.90602749298242e-05
4.28169150831746e-06,4.01907940837071e-06,1.07735853583145e-05,1.90743562750026e-05
5.30454709417266e-06,5.21801856398647e-06,1.09490988621116e-05,2.14716645202707e-05
1.40511667281948e-05,8.66455554548262e-06,1.70323115548183e-05,3.97480338284957e-05
1.72232744207789e-05,2.87769672893063e-05,4.29831881817711e-05,8.89834298918564e-05
6.79236395035263e-06,5.81824840240158e-06,1.2154572644209e-05,2.47651849969632e-05
1.63125485754257e-05,1.21292661052577e-05,2.43241035201452e-05,5.27659182008285e-05
2.19801924383381e-05,1.64387347285048e-05,3.17839041195786e-05,7.02028312864215e-05
8.57102800506654e-06,1.25913063403695e-05,1.81140886699901e-05,3.92764230154262e-05
1.82152162380539e-05,1.91118772150605e-05,2.87541875390753e-05,6.60812809921897e-05
8.5852288813876e-06,9.20064181296473e-06,1.41261164945301e-05,3.19119871888825e-05
2.21950759978341e-05,1.39670928838724e-05,3.54252235760066e-05,7.15873924577131e-05
6.55589216440656e-06,7.62139280643881e-06,1.850848709227e-05,3.26857720631154e-05
1.74545284853036e-05,1.32466654802498e-05,2.24114445099717e-05,5.31126384755251e-05
0.000186130959448158,0.000490303836145228,0.000225814362873262,0.000902249158466648
0.000145025432606128,0.000115439780924937,0.00011984210052025,0.000380307314051315
1.35368218621298e-05,2.04518123618433e-05,3.22302465087936e-05,6.62188807327668e-05
4.41317436328121e-06,4.80440233853476e-06,8.89143245523821e-06,1.81090091570542e-05
9.47552310373674e-05,7.45889963835092e-05,7.5714391527513e-05,0.000245058618948389
2.79062707978335e-05,1.5115726114861e-05,3.00373227303835e-05,7.30593196430779e-05
2.57222740373271e-05,3.35863654954202e-05,6.04198562349894e-05,0.000119728495767737
1.35796217375508e-05,1.43280253704526e-05,2.72801603740183e-05,5.51878074820216e-05
4.75965007131779e-05,5.22000021091746e-05,9.72875137648053e-05,0.000197084016587158
5.53562408901816e-05,3.53089853600334e-05,4.68217207459467e-05,0.000137486946996162
9.18947238670904e-06,1.1206340373521e-05,1.67918664211449e-05,3.7187679181375e-05
6.19480476683187e-05,4.24674973050943e-05,5.0459818889294e-05,0.000154875363862707
3.71686983639567e-05,4.56407663412813e-05,5.39261938537656e-05,0.000136735658559004
0.000110346427449806,0.000104835088711367,0.000101443230231078,0.000316624746392251
5.29576510019051e-06,7.41634906740677e-06,1.45601246715707e-05,2.7272238839168e-05
5.27589998375454e-05,5.77689778239533e-05,6.37976066090168e-05,0.000174325584270516
5.59310904627933e-05,4.96814497576393e-05,4.74935802046895e-05,0.000153106120425122
0.000214589573890437,0.000310515022951315,0.000162546871613673,0.000687651468455425
4.53102834938761e-05,9.07069874265077e-05,5.19224236382978e-05,0.000187939694558682
3.22025691491624e-05,2.48078335541672e-05,3.95917521911989e-05,9.66021548945284e-05
5.96026402587082e-05,2.75698264776929e-05,4.73178799039839e-05,0.000134490346640385
3.49210395594445e-05,4.05048756536657e-05,3.79967967653948e-05,0.000113422711978505
4.06669829168922e-05,4.43511043922701e-05,3.79623349469867e-05,0.000122980422256149
9.72799961640092e-06,1.13811144377271e-05,1.83939288799509e-05,3.9503042934079e-05
1.12860409336789e-05,8.33860925352539e-06,1.42325795522912e-05,3.38572297394955e-05
1.20210279462268e-05,9.90073786129318e-06,1.90833639876478e-05,4.10051297951678e-05
2.85455096819757e-05,2.02147316290027e-05,4.23400917812051e-05,9.11003330921835e-05
1.93169474975969e-05,1.13818151656618e-05,2.8038504989449e-05,5.87372676527077e-05
1.42036456645256e-05,8.57083928848556e-06,2.10478933698217e-05,4.38223783228329e-05
2.62818903891088e-05,1.99134213673668e-05,2.85036360875523e-05,7.46989478440279e-05
6.63108932687221e-06,6.99004940796299e-06,1.40188151974916e-05,2.76399539323268e-05
4.06335634861919e-06,4.18880519884588e-06,9.39886779257574e-06,1.76510293400408e-05
1.07168931485189e-05,2.37821709875268e-05,2.36783109673676e-05,5.81773751034133e-05
3.98145401036346e-05,1.82814957362688e-05,2.37346866839961e-05,8.18307225238994e-05
5.55397864717017e-06,7.22709792994136e-06,1.47186934116006e-05,2.74997699887122e-05
1.27034357454606e-05,1.26554330033209e-05,1.64703491451345e-05,4.1829217893916e-05
4.28118940380155e-05,2.96320793647253e-05,3.12411524870873e-05,0.000103685125889828
4.22668680528256e-05,4.02384624728245e-05,5.93168428445029e-05,0.000141822173370153
0.000103548818328607,6.52182806200854e-05,6.66430517491042e-05,0.000235410150697797
6.04773235284749e-05,3.83085255612634e-05,5.10948886651825e-05,0.000149880737754921
5.11015335313123e-05,3.82313869717713e-05,4.42872104894246e-05,0.000133620130992508
1.52937935765351e-05,1.34604517805669e-05,3.0203416412622e-05,5.89576617697241e-05
1.33613821290538e-05,7.28590372784411e-06,1.65415032066544e-05,3.71887890635523e-05
1.24343344800085e-05,1.00967699728057e-05,2.25896954038348e-05,4.51207998566491e-05
1.19778715618878e-05,8.85427966658211e-06,1.80393947244889e-05,3.88715459529587e-05
2.77591768592327e-05,3.49210409452814e-05,2.98013123401787e-05,9.24815301446928e-05
1.2542996853166e-05,1.57703699445084e-05,2.70694194912935e-05,5.53827862889679e-05
9.24464343319079e-06,8.50713441197802e-06,1.96073578123401e-05,3.73591356575089e-05
4.62229503137769e-05,5.14165347205746e-05,9.71877777409231e-05,0.000194827262775275
4.90946380776749e-05,3.66571602928165e-05,6.25611020434059e-05,0.000148312900413897
0.000135736916061612,0.000129505297242674,0.000119929780181213,0.000385171993485499
1.37142593934297e-05,1.04357843635146e-05,1.94263078274445e-05,4.35763515843888e-05
5.28241471443462e-05,2.72877464302821e-05,3.8273025642839e-05,0.000118384919217467
2.24451673758647e-05,1.3147552510878e-05,3.30976268188151e-05,6.86903467055579e-05
0.000107017934143713,0.000143271406021811,3.64537115122035e-05,0.000286743051677728
5.31246140099975e-06,5.27779061672087e-06,1.45245123836311e-05,2.51147644013517e-05
9.6062286318928e-06,6.66303842088002e-06,1.50797159109975e-05,3.13489829637703e-05
0.000132704572421561,0.000183471000393603,0.000125607923445555,0.000441783496260719
1.74052562131216e-05,1.23664306822892e-05,2.9558427824994e-05,5.93301147204048e-05
4.96815575298212e-06,4.31201562429191e-06,1.07954387520519e-05,2.00756101293259e-05
2.70106336664805e-05,3.7621270786559e-05,2.3554719114763e-05,8.81866235678025e-05
1.72585048037027e-05,1.31609315258071e-05,1.73315973689335e-05,4.77510336984433e-05
1.6241808492038e-05,1.68418217119918e-05,2.29617008310259e-05,5.60453310350557e-05
1.11025021863217e-05,1.14308909475941e-05,2.37045332481904e-05,4.62379263821061e-05
5.23721826096044e-06,6.86189905805463e-06,1.8689297837937e-05,3.07884151569521e-05
9.43495010019812e-05,0.000104181998850308,7.07500094811949e-05,0.000269281509333484
9.68187580048294e-05,9.68733836219621e-05,6.51192290219119e-05,0.000258811370648703
2.28949505410167e-05,2.50860550389735e-05,2.91139515500576e-05,7.70949571300478e-05
8.89154226385145e-06,7.91476186518182e-06,1.1830076367325e-05,2.86363804963583e-05
4.91748572602425e-06,6.39037282949566e-06,1.25891067298095e-05,2.38969652853294e-05
5.06777157015348e-06,7.57704386443367e-06,1.44790714854088e-05,2.71238869199959e-05
3.31681028184682e-06,3.17786815797619e-06,7.89843906255078e-06,1.43931175023738e-05
1.37168429646594e-05,1.30021924128672e-05,1.67572569599235e-05,4.347629233745e-05
1.0228692832862e-05,8.07255853781262e-06,1.39705595451268e-05,3.22718109158015e-05
3.16753087416227e-06,2.60360835738332e-06,8.07852615259604e-06,1.38496653841416e-05
8.45159172807191e-06,6.94607809586363e-06,1.18135067169931e-05,2.72111765409286e-05
4.9061660103644e-06,3.78989545666386e-06,9.41303758242342e-06,1.81090990494517e-05
1.86607414065396e-05,2.41298575302907e-05,2.53105284934936e-05,6.81011274303239e-05
2.10440391229862e-05,2.40982728134839e-05,2.52540982000312e-05,7.03964101365012e-05
4.59351928741232e-06,3.93451627794203e-06,8.67851971081351e-06,1.72065552761679e-05
8.70711656496057e-06,8.53342015115026e-06,1.34272960362403e-05,3.06678327523511e-05
3.52214223831634e-05,4.1745036552878e-05,5.73066199785674e-05,0.000134273078914609
7.83546752897009e-05,0.000138208738018944,9.81183904764496e-05,0.000314681803785095
0.000132557867910866,0.000157905139725452,0.000391722121800562,0.000682185129436881
1.11234277613554e-05,9.70823566889346e-06,1.46376975792567e-05,3.54693610095056e-05
2.5654079961838e-05,2.68959274266789e-05,2.72664199347823e-05,7.98164273232992e-05
4.79039002394247e-05,4.79785365865299e-05,5.08754009988739e-05,0.000146757837824828
8.90700582460257e-06,5.86734917915327e-06,1.40325899275988e-05,2.88069449313547e-05
7.61482865002472e-06,5.77319012763241e-06,1.33257324859633e-05,2.67137512636204e-05
6.7229592379605e-06,5.66470915750553e-06,1.39346719527283e-05,2.63223403481943e-05
5.83546398156306e-06,3.97851844882048e-06,1.0581917102161e-05,2.03958995325445e-05
7.04514711812786e-06,4.88615953914751e-06,1.22010566679113e-05,2.41323633251867e-05
5.76755782826585e-06,4.00831878513349e-06,1.06151596727452e-05,2.03910362861445e-05
1.13632902467462e-05,7.24650562623648e-06,1.40302440539595e-05,3.26400399269421e-05
1.1580008624473e-05,9.98866034227597e-06,2.2994259060945e-05,4.45629280276939e-05
1.03927994207873e-05,6.23498438050059e-06,1.56202878428944e-05,3.22480716441822e-05
3.55889292101759e-05,2.63703071463786e-05,4.01722593117545e-05,0.000102131495668309
2.40648704453866e-05,2.02715891622374e-05,2.2796388123909e-05,6.71328477315331e-05
2.40637815262933e-05,1.95153266282963e-05,2.45655893637913e-05,6.81446975183809e-05
7.37724150434171e-06,8.73408381505453e-06,1.82325432867327e-05,3.4343868606129e-05
3.23553012086573e-05,3.65958781278103e-05,3.60041999237637e-05,0.000104955379260231
3.22598510357951e-05,2.88220126443765e-05,3.68592091149325e-05,9.79410727951041e-05
1.52423422867281e-05,1.85843265608927e-05,4.07930803337042e-05,7.4619749181325e-05
6.40198276424461e-06,7.02802312077493e-06,1.26486686346035e-05,2.6078674519623e-05
6.44854897730926e-06,4.97791892323889e-06,1.24961098394322e-05,2.39225777399803e-05
5.03991967737683e-06,4.44094414753876e-06,1.23980843267563e-05,2.18789481516719e-05
2.13990019592613e-05,2.61718083671035e-05,3.3373333650246e-05,8.09441439766108e-05
9.50485003472899e-06,7.06568065227064e-06,1.15203525705895e-05,2.80908832575892e-05
1.33999382298222e-05,1.17292104429964e-05,1.94571391932618e-05,4.45862878660805e-05
1.04128628679249e-05,8.37889969745741e-06,1.66382193850043e-05,3.54299819503867e-05
6.71672663511478e-06,5.46837153705553e-06,1.64395047370655e-05,2.86246029092359e-05
1.30208559078127e-05,1.34190918300131e-05,2.46218880243772e-05,5.1061835762203e-05
3.02567518770078e-05,2.25303325735644e-05,3.044693384576e-05,8.32340182963321e-05
0.00017001120857941,0.00073809985226729,0.000206234384674935,0.00111434544552164
0.000250688621031266,0.000216281384209346,0.00014059076673549,0.000607560771976102
9.77883118266329e-05,7.80841090561703e-05,6.53997414404973e-05,0.000241272162323301
5.09767982947813e-05,3.12268692791995e-05,5.47582137701442e-05,0.000136961881344125
3.13383773886685e-05,3.41818865423784e-05,3.95972243170132e-05,0.00010511748824806
1.06358253330628e-05,1.03410494674153e-05,1.93107663946732e-05,4.02876411951514e-05
4.9779559929453e-06,4.94133336978548e-06,1.56953575440656e-05,2.56146469067963e-05
1.72629045146929e-05,1.75566004090732e-05,3.31940046162734e-05,6.80135095400394e-05
6.49404365208405e-06,5.65125966030385e-06,1.4410152756029e-05,2.65554560684169e-05
5.55278069404229e-06,4.58925175973634e-06,1.20845300608959e-05,2.22265625146745e-05
4.91373330626704e-06,4.16466300037642e-06,1.19889435815862e-05,2.10673398882297e-05
7.00591740399212e-06,4.55525692194365e-06,1.27810267319888e-05,2.43422010579245e-05
6.24892030889388e-06,5.09492163953075e-06,1.43431410872198e-05,2.56869830356444e-05
7.77049644157459e-06,4.88102723001688e-06,1.2468661324981e-05,2.51201849965725e-05
3.94634784267031e-06,3.30216504894347e-06,9.93447901783002e-06,1.71829919094438e-05
4.0075035492819e-06,3.24637963836127e-06,9.18067802405571e-06,1.64345612116989e-05
3.27218087023087e-06,2.88145126306223e-06,8.69949531444731e-06,1.48531274477404e-05
3.99134875319764e-06,2.97733980655689e-06,9.13443121681486e-06,1.61031197765694e-05
6.61404593429463e-06,6.76825077784548e-06,1.68643806836033e-05,3.02466773957434e-05
1.30143157349204e-05,9.96753048642678e-06,2.38379705589567e-05,4.68198167803039e-05
7.50093335989072e-06,6.88410954074177e-06,1.6550778051331e-05,3.09358209519635e-05
4.90001573729948e-06,3.88605985196927e-06,1.04627444590043e-05,1.9248820048273e-05
4.17347655435403e-06,3.85660833574832e-06,9.64742506240924e-06,1.76775099525116e-05
4.79539005609774e-06,4.43188625049031e-06,1.08861865389711e-05,2.01134628455592e-05
7.26576412753067e-06,6.12673600579183e-06,1.33375773658847e-05,2.67300774992072e-05
5.15602944530976e-06,4.26353174409964e-06,1.10599738737674e-05,2.04795350631768e-05
5.6781772345438e-06,5.07915885649684e-06,1.28632210635986e-05,2.36205571546392e-05
5.6301092959867e-06,5.11324012904543e-06,1.27956049081898e-05,2.35389543332219e-05
6.12179500110391e-06,6.71157995112729e-06,1.50530530211581e-05,2.78864279733893e-05
3.40342831811317e-06,3.63966226091011e-06,9.43627717407492e-06,1.64793677530982e-05
4.34646707648935e-06,3.49103628954684e-06,8.19677359423817e-06,1.60342769602744e-05
3.69237330484898e-06,3.95323257828877e-06,9.48770654995587e-06,1.71333124330936e-05
6.02665094002083e-06,4.2115839851306e-06,1.15951873323167e-05,2.18334222574681e-05
5.48920252928321e-06,5.10278412762066e-06,1.14737538654381e-05,2.20657405223419e-05
4.36501714059262e-06,3.9667095582054e-06,1.09163156310778e-05,1.92480423298758e-05
4.37368519901333e-06,3.74293931841656e-06,1.04373875734548e-05,1.85540120908847e-05
6.61448676705966e-06,6.47177320040381e-06,1.44485779867013e-05,2.75348379541648e-05
7.02728562641101e-06,6.35394612287011e-06,1.39316052463545e-05,2.73128369956356e-05
7.85302398318986e-06,5.2308473382486e-06,1.09200144294672e-05,2.40038857509057e-05
1.50926968518247e-05,1.41366127698619e-05,2.61079289709088e-05,5.53372385925953e-05
3.23682748009671e-05,2.05867967402434e-05,3.95602489950727e-05,9.25153205362833e-05
3.92122242771448e-06,2.84851785114594e-06,1.03805411311764e-05,1.71502814100368e-05
2.20965144973778e-05,1.48676649013701e-05,3.77599999822791e-05,7.47241793810271e-05
1.89092591981367e-05,2.39302051836798e-05,5.78343455638135e-05,0.00010067380994563
6.9906516063319e-06,6.25392164727455e-06,1.88897050955955e-05,3.21342783492019e-05
9.31934701262282e-06,9.40795172755111e-06,2.54255906661031e-05,4.41528894062771e-05
8.6494009338132e-06,1.1481432032006e-05,2.43236637952408e-05,4.445449676106e-05
5.21594322195875e-06,4.71709411755907e-06,1.34393882171069e-05,2.33724255566247e-05
8.93851077666677e-06,1.0892962387975e-05,3.57523699061057e-05,5.55838430707475e-05
1.55880310818424e-05,1.28390698543214e-05,4.40662273823309e-05,7.24933283184948e-05
1.3967144996998e-05,1.18861296584057e-05,2.93662477182262e-05,5.52195223736299e-05
2.40186933915798e-05,2.53293866369826e-05,3.68635890952419e-05,8.62116691238043e-05
1.56934921528145e-05,1.6335511644433e-05,2.80499365760241e-05,6.00789403732715e-05
5.09707020208036e-05,3.6559726937002e-05,6.65139147209082e-05,0.000154044343678714
6.35961154078849e-06,5.67977741907647e-06,1.75563612802397e-05,2.95957502401047e-05
5.83489842783461e-06,6.87911337279628e-06,1.81959192459635e-05,3.09099310465944e-05
6.5687638346006e-06,8.60669420567464e-06,1.72722644800126e-05,3.24477225202879e-05
6.7002066601801e-05,4.31460852478286e-05,6.01228491513736e-05,0.000170271001001003
2.5058998510965e-05,4.39994551537406e-05,0.000100005292224553,0.000169063745889259
2.71899561706735e-05,2.4251935911456e-05,3.1990616633916e-05,8.34325087160455e-05
1.56557786273718e-05,1.96030392595913e-05,3.19931478196359e-05,6.7251965706599e-05
2.00867698954711e-05,2.07819333668889e-05,4.02432423291306e-05,8.11119455914906e-05
5.13650629037847e-05,3.77118549823799e-05,5.23844253867169e-05,0.000141461343272881
2.48287069739219e-05,1.91183063831763e-05,2.93857184919252e-05,7.33327318490234e-05
2.51139082318046e-05,2.04004360014877e-05,6.53289048238184e-05,0.000110843249057111
2.12356055549619e-05,2.72081540739822e-05,5.00263169305445e-05,9.84700765594886e-05
1.11643501766577e-05,5.96811861759495e-06,1.5398061498438e-05,3.25305302926906e-05
3.66355517210917e-06,3.48840800072001e-06,8.31539715865828e-06,1.54673603314875e-05
5.43039419474957e-06,7.09467026804118e-06,1.86095768127969e-05,3.11346412755877e-05
5.37563263013974e-06,6.25298586345673e-06,1.33368032266744e-05,2.49654217202709e-05
0.000139136543867794,0.00019891940621676,0.000181370640824375,0.000519426590908929
1.39274694026813e-05,1.93004713026481e-05,2.73582363001015e-05,6.05861770054308e-05
2.17822055371862e-05,2.62111482632075e-05,6.36785745470018e-05,0.000111671928347395
1.86412250168412e-05,1.96433350595581e-05,3.11125681206138e-05,6.93971281970131e-05
1.34510804589129e-05,1.32357317097323e-05,2.50145166922867e-05,5.1701328860932e-05
9.56280275281093e-06,9.66706430919378e-06,1.46837793741144e-05,3.39136464361191e-05
1.68525715758509e-05,2.23812305661857e-05,2.53538713468383e-05,6.45876734888749e-05
4.66891549013364e-06,6.22514254230767e-06,1.76301417619899e-05,2.85241997944312e-05
4.12476867539277e-06,7.04365174858924e-06,1.17487861994545e-05,2.29172066234365e-05
3.39184388082844e-06,4.29264338222797e-06,9.49755502126375e-06,1.71820422843202e-05
9.44492671231216e-06,6.50533092577308e-06,1.39881659378263e-05,2.99384235759116e-05
7.98698388593766e-06,8.8516954476606e-06,1.6453333291359e-05,3.32920126249573e-05
1.47389655879077e-05,1.17753209606212e-05,1.48510361114464e-05,4.13653226599754e-05
3.64069451895204e-05,2.86103113353906e-05,4.24847894387529e-05,0.000107502045963664
2.77701008682798e-05,1.63678623837417e-05,2.20347470769439e-05,6.61727103289654e-05
4.58807405602594e-05,2.17006294914733e-05,3.74843026299344e-05,0.000105065672681667
2.62233857741966e-05,1.58916093874541e-05,3.46333055432095e-05,7.67483007048602e-05
6.93331705331687e-06,6.31344842105401e-06,1.33909067040199e-05,2.66376721783908e-05
6.18896617521423e-06,5.59668209209049e-06,1.2168474834077e-05,2.39541231013818e-05
8.32398560801439e-06,1.18050140416491e-05,1.92695036026304e-05,3.93985032522939e-05
9.9792828591873e-06,7.40214169734143e-06,1.64891480107336e-05,3.38705725672623e-05
9.07062959175689e-06,1.02887492847649e-05,1.88157859307814e-05,3.81751648073032e-05
1.16905516068912e-05,1.42889047941963e-05,3.02670736130402e-05,5.62465300141277e-05
4.16806953288533e-06,5.15224117321809e-06,1.05908633355746e-05,1.9911174041678e-05
2.48817003380112e-05,1.46766621274621e-05,2.42945767272573e-05,6.38529391927305e-05
5.03796113948472e-06,3.69479974572228e-06,1.21786114044778e-05,2.09113722896848e-05
6.88891105303477e-06,5.21882587963981e-06,1.32480040485678e-05,2.53557409812424e-05
1.16029951449882e-05,1.24650901136166e-05,2.98837845104437e-05,5.39518697690485e-05
7.2725340415192e-06,6.37306596182521e-06,1.39363840652099e-05,2.75819840685543e-05
6.31640634067258e-06,1.04471817999024e-05,3.09131367284096e-05,4.76767248689846e-05
3.48435840915307e-05,3.60529501837039e-05,4.29538483212146e-05,0.000113850382596449
2.4647453190799e-05,4.07783748886667e-05,7.65213409890323e-05,0.000141947169068498
7.1079410454127e-06,1.3141240494733e-05,1.5623560833158e-05,3.58727423733037e-05
3.52418584222727e-06,4.40784603583495e-06,1.01795475334121e-05,1.81115794114743e-05
4.89551506887914e-06,8.95296161913901e-06,1.02441118009265e-05,2.40925884889446e-05
4.67193810133966e-06,5.63047678957274e-06,1.01489635964828e-05,2.04513784873952e-05
4.01810127690032e-06,9.73013779622919e-06,2.117751563338e-05,3.49257547065095e-05
6.78483172876791e-06,8.39901882669542e-06,1.88270283148921e-05,3.40108788703554e-05
7.17158901411776e-05,4.78040749888305e-05,4.43593692890591e-05,0.000163879334419067
1.43061748189192e-05,8.73827102194694e-06,1.58352280020534e-05,3.88796738429196e-05
1.03798782329427e-05,7.95327980100329e-06,2.08058055756296e-05,3.91389636095756e-05
1.270224437324e-05,1.52845723471128e-05,4.01792086760666e-05,6.81660253964194e-05
1.95548283766641e-05,1.42591340822726e-05,2.78380697603404e-05,6.1652032219277e-05
4.2190945832298e-05,3.55574763130493e-05,5.99094706475594e-05,0.000137657892792907
8.38341219777339e-06,8.00025305457414e-06,1.90211394055171e-05,3.54048046578646e-05
8.30856869072299e-06,6.71015609877531e-06,1.85254483821281e-05,3.35441731716264e-05
5.58607030760457e-06,4.68324642941843e-06,1.1784408420243e-05,2.2053725157266e-05
4.81382844924868e-06,4.99655975901684e-06,1.35967484909051e-05,2.34071366991706e-05
4.46902849398675e-06,4.66244166419381e-06,1.09371424644899e-05,2.00686126226705e-05
5.3720101426128e-06,4.96245207971249e-06,1.09721102315557e-05,2.1306572453881e-05
4.88806271632977e-06,4.00462626905902e-06,9.70381073214998e-06,1.85964997175388e-05
5.54297575067588e-06,4.3736138119078e-06,1.19617099438239e-05,2.18782995064076e-05
8.80831378454674e-06,3.89801580164679e-06,1.00415968318406e-05,2.27479264180341e-05
3.56011230838864e-06,2.88727938732763e-06,9.68658934878068e-06,1.61339810444969e-05
8.03580317075274e-06,5.38895381035703e-06,1.26710638970034e-05,2.60958208781131e-05
1.70174020964025e-05,5.87340079478445e-06,1.22760835922776e-05,3.51668864834646e-05
3.20151918269153e-05,1.19004895924355e-05,2.04228505099366e-05,6.43385319292875e-05
6.78029214662938e-06,8.79065944280275e-06,2.07365796034587e-05,3.63075311928908e-05
9.68543089190339e-06,8.86408071306376e-06,1.67476009666317e-05,3.52971125715988e-05
1.23746300316128e-05,8.49827470312515e-06,1.8156978943682e-05,3.902988367842e-05
6.59179019092664e-05,5.52573667870804e-05,6.74538375090092e-05,0.000188629106205356
3.72346152055886e-06,3.09592050504354e-06,9.56502962030143e-06,1.63844116459038e-05
2.58697822971655e-05,1.41409382421003e-05,2.75925248040886e-05,6.76032453433544e-05
3.45162190160642e-05,1.52309802061109e-05,3.41266847610943e-05,8.38738839832694e-05
1.26247806309832e-05,3.38015224573287e-06,1.13812987842625e-05,2.73862316609786e-05
1.43740290300131e-05,7.14672584122845e-06,1.54794930962937e-05,3.70002479675353e-05
3.26582275695053e-06,2.52830199947045e-06,7.38815916794366e-06,1.31822839243646e-05
1.24201005144687e-05,5.29775776318546e-06,1.16202425331777e-05,2.93381008108319e-05
1.20131683887013e-05,3.563244131428e-06,1.0262153906338e-05,2.58385664264673e-05
9.05091168267876e-06,5.16861937338952e-06,1.0708276339534e-05,2.49278073956022e-05
1.07989783482642e-05,8.9148130939375e-06,1.48849350825334e-05,3.45987265247351e-05
6.56834831811126e-06,4.20049597710606e-06,1.38687192880277e-05,2.4637563583245e-05
3.92998411913474e-06,3.72605430246402e-06,8.78924091671101e-06,1.64452793383098e-05
6.28907022647582e-06,5.79216638099449e-06,1.74540173355226e-05,2.95352539429929e-05
6.98465134433624e-06,5.97267887283936e-06,1.40884974457779e-05,2.70458276629535e-05
5.92032973798069e-06,5.75599919135943e-06,1.38138921326047e-05,2.54902210619449e-05
6.70846273519037e-06,5.22667183598398e-06,1.28997515328367e-05,2.4834886104011e-05
1.06328665754467e-05,1.00908409872567e-05,2.70612308912028e-05,4.77849384539062e-05
7.76906212244947e-06,8.23295190296092e-06,1.54918056774167e-05,3.14938197028271e-05
0.000129334806403217,0.00013663849824256,0.000142660356450456,0.000408633661096233
1.12941431901203e-05,2.20326708419947e-05,3.06556448158762e-05,6.39824588479911e-05
3.84714092555507e-06,3.54699761850052e-06,1.14947411423597e-05,1.88888796864152e-05
2.98851880082488e-06,2.90309771589116e-06,8.15357856623969e-06,1.40451950829557e-05
3.05118207631594e-06,2.61708704981173e-06,7.77986464458684e-06,1.34481337707145e-05
4.69608408260489e-06,3.60742224717817e-06,1.09817388814955e-05,1.92852452112786e-05
3.08569597434648e-06,2.72532608703795e-06,7.73039406285821e-06,1.35414161242426e-05
3.07148195906355e-06,2.75105488104533e-06,7.70172784877339e-06,1.35242646888823e-05
1.54259829845457e-05,1.21454328289606e-05,1.97690609220247e-05,4.7340476735531e-05
1.10200789652913e-05,6.73760819567817e-06,1.21965726142859e-05,2.99542597752554e-05
3.88121846248406e-06,4.21429785230666e-06,1.14886718014933e-05,1.95841881162841e-05
3.11458174778498e-06,2.60239145835263e-06,7.6936046164813e-06,1.34105778226189e-05
8.559262351327e-06,7.74350630587476e-06,2.96084863585717e-05,4.59112550157735e-05
4.48848889413657e-06,3.67046865241082e-06,1.01354191903182e-05,1.82943767368656e-05
3.01891457378957e-06,2.68711931317447e-06,7.22434668275775e-06,1.29303805697218e-05
2.97111705456182e-06,2.49411430266088e-06,7.66825976228011e-06,1.31334911195028e-05
4.14483711528311e-06,4.43056170756947e-06,1.49776164538481e-05,2.35530152767007e-05
3.37581882176315e-06,2.83381878371288e-06,7.67421715211165e-06,1.38838547575877e-05
5.39431143633304e-06,4.28506895807875e-06,1.20904886551617e-05,2.17698690495735e-05
4.75150015529783e-06,6.79456123458839e-06,1.58999774682505e-05,2.74460388581368e-05
2.77224861871327e-06,2.42828528372512e-06,6.79382954533099e-06,1.19943634477694e-05
0.000850659747760576,0.00156917110721093,0.000458184297551876,0.00287801515252338
6.12939523427688e-05,4.59246110882319e-05,5.53611384203951e-05,0.000162579701851396
8.3974790705781e-06,8.11993557081012e-06,1.98490453441275e-05,3.63664599855157e-05
4.90851204988961e-06,5.58034201096102e-06,1.40932208496937e-05,2.45820749105443e-05
7.78169922733529e-06,8.2491820177053e-06,1.71241163297591e-05,3.31549975747997e-05
5.36222423962165e-05,4.97312065831067e-05,6.65546753288248e-05,0.000169908124308148
6.14306924768211e-06,5.69904978126246e-06,1.47552036042442e-05,2.65973226331888e-05
8.32668939934881e-06,8.6221112547135e-06,1.83745754626841e-05,3.53233761167464e-05
7.30356579540381e-06,6.35689581621044e-06,1.64122739681178e-05,3.0072735579732e-05
7.69838143812385e-06,6.1808954129051e-06,1.62117312417331e-05,3.0091008092762e-05
3.79849336846234e-06,3.15423880369574e-06,8.02854810535176e-06,1.49812802775098e-05
7.16690203470116e-06,4.32740171966252e-06,1.02598448406105e-05,2.17541485949742e-05
6.66478070984e-06,5.95079956342107e-06,1.09580193476534e-05,2.35735996209144e-05
3.97719934832699e-06,3.75015547273439e-06,1.01899451519276e-05,1.79172999729889e-05
3.86427870628016e-06,2.59872048708192e-06,7.95823104537042e-06,1.44212302387325e-05
2.88654731161992e-06,2.50677970637104e-06,6.8892676577648e-06,1.22825946757558e-05
3.13455838970378e-06,2.61879202493976e-06,7.26441573187985e-06,1.30177661465234e-05
3.59731593168064e-06,3.59084258849086e-06,1.10157906718124e-05,1.82039491919839e-05
6.72996242040309e-06,1.07333354187939e-05,2.30007662152841e-05,4.04640640544811e-05
6.70812104735197e-06,7.95124118883153e-06,1.40776475854544e-05,2.87370098216379e-05
4.6240179511868e-06,4.52931971519425e-06,1.11306602470702e-05,2.02839979134513e-05
3.59185488123026e-06,2.77033555258183e-06,7.84747302954644e-06,1.42096634633585e-05
3.10745732658998e-06,2.71917202357598e-06,7.14086737374855e-06,1.29674967239145e-05
3.05585010742683e-06,2.79480909094682e-06,7.24228811315591e-06,1.30929473115296e-05
2.89523924573308e-06,2.45002674744806e-06,6.4736290641208e-06,1.18188950573019e-05
2.89266442810104e-06,2.37208417378868e-06,6.83416476630305e-06,1.20989133681928e-05
2.93628656148333e-06,2.38082981421742e-06,7.03056420795572e-06,1.23476805836565e-05
4.12461628003955e-06,4.12250328507398e-06,1.16396346766462e-05,1.98867542417597e-05
5.20042242652563e-06,9.48487069762102e-06,1.61182401683528e-05,3.08035332924994e-05
4.44864244608095e-06,5.44851018229959e-06,1.20870292010892e-05,2.19841818294698e-05
2.81226096279967e-06,2.39426585064157e-06,6.1803799445793e-06,1.13869067580205e-05
3.09431823675657e-06,2.70965092899358e-06,7.49660798086644e-06,1.33005771466166e-05
6.27976781601856e-06,6.17218065086247e-06,1.83875436931028e-05,3.08394921599838e-05
5.47177133285411e-06,5.32067544613359e-06,1.3631614752549e-05,2.44240615315367e-05
3.04228511170963e-06,2.6554272945392e-06,7.7244195297957e-06,1.34221319360445e-05
3.08192967353573e-06,2.98001583663136e-06,9.86011058767927e-06,1.59220560978464e-05
3.02944005030851e-06,2.7878095832351e-06,7.65861801123281e-06,1.34758676447764e-05
3.86252834261019e-06,4.26344885077389e-06,1.30302332557255e-05,2.11562104491096e-05
4.00048467833354e-06,1.12457410926037e-05,1.9832467374988e-05,3.50786931459252e-05
4.11896174435532e-06,3.16514324439149e-06,9.35278718579398e-06,1.66368921745408e-05
4.50047171287685e-06,5.34459585105705e-06,1.6419284571977e-05,2.62643521359109e-05
2.01183607189246e-05,2.40947234618495e-05,1.77547597484097e-05,6.19678439291839e-05
4.46425988815558e-06,4.10414784625012e-06,8.4951882179593e-06,1.7063595952365e-05
3.02059323513573e-06,2.47515213452325e-06,6.59427766818869e-06,1.20900230378477e-05
4.89946603557753e-06,3.283377500371e-06,8.77400932843342e-06,1.69568528643819e-05
4.74150256447362e-06,3.56608898010914e-06,9.05142685061186e-06,1.73590183951946e-05
6.90950653254918e-05,5.38560163947259e-05,7.94049184501753e-05,0.000202356000170393
1.53465008800345e-05,2.23666112238342e-05,2.67951574913136e-05,6.45082695951824e-05
7.85418118282703e-06,1.13423396687566e-05,1.9161751018434e-05,3.83582718700176e-05
6.51024526242999e-06,4.63252649160742e-06,1.04471620039619e-05,2.15899337579993e-05
6.67482953630435e-06,6.66470524102496e-06,1.55445552486961e-05,2.88840900260254e-05
5.140218183674e-06,4.31687574214949e-06,9.42904181244878e-06,1.88861357382723e-05
2.86560333906892e-06,2.63644689349735e-06,7.12873924800157e-06,1.26307894805678e-05
1.29331106363425e-05,1.09292839006389e-05,1.78301758818501e-05,4.16925704188315e-05
3.62451030743446e-06,3.52325130613789e-06,8.76377388776535e-06,1.59115355013377e-05
3.56003705305197e-06,3.18219231807516e-06,7.03508710849578e-06,1.37773164796229e-05
1.87814324793833e-05,2.86780121848243e-05,3.106162205953e-05,7.85210667237377e-05
6.57611342175948e-06,9.9928754794313e-06,1.69799348105925e-05,3.35489237117832e-05
5.86469996176772e-06,9.52583372131623e-06,1.52510757079183e-05,3.06416093910023e-05
5.81519544893057e-06,1.10019228982333e-05,1.98643920294282e-05,3.6681510376592e-05
7.09873083651755e-06,1.67790516471597e-05,2.71878444492726e-05,5.10656269329498e-05
1.05494673113827e-05,1.36080281761378e-05,2.41293510639564e-05,4.82868465514769e-05
6.28048077576087e-06,5.773627391308e-06,9.505404637678e-06,2.15595128047469e-05
5.46978930981585e-06,7.19579940133308e-06,1.78765027765187e-05,3.05420914876676e-05
1.05494647261577e-05,9.65849915416787e-06,1.84003604669383e-05,3.86083243472639e-05
7.46553442513575e-06,9.74534127375613e-06,1.50242436298924e-05,3.22351193287843e-05
6.26784583617034e-06,9.91982340956879e-06,1.95330968207656e-05,3.57207660665047e-05
5.64173085948094e-06,9.75240547636489e-06,1.74061820875776e-05,3.28003184234235e-05
8.68517435500983e-06,1.05643568173251e-05,1.97421127853338e-05,3.89916439576687e-05
8.80596116580892e-06,1.40049236326726e-05,2.27879010207036e-05,4.55987858191852e-05
9.86542088477626e-06,1.07533405985909e-05,1.93302523406091e-05,3.99490138239763e-05
3.17542509877841e-05,6.27838019512934e-05,0.000138981087102738,0.000233519140041815
6.99258632419653e-06,1.28213780784065e-05,2.02673959938715e-05,4.00813603964745e-05
7.82002431287383e-06,1.28452073901638e-05,2.49375281661681e-05,4.56027598692057e-05
6.61804559872579e-06,1.7622080203202e-05,2.08479652672438e-05,4.50880910691716e-05
1.08049149093404e-05,1.22017912127016e-05,2.21776755717886e-05,4.51843816938306e-05
1.03733546093867e-05,1.44965017421862e-05,2.01876237008212e-05,4.50574800523941e-05
1.02323136832292e-05,1.31829348957997e-05,2.46011661839646e-05,4.80164147629934e-05
6.77579974741747e-06,9.34416840963324e-06,1.65728529623075e-05,3.26928211193583e-05
6.66018843896717e-06,1.1715091731512e-05,2.25851374324234e-05,4.09604176029026e-05
4.39795857580184e-05,4.70987590770426e-05,3.63506821865847e-05,0.000127429027021646
9.56274767626241e-06,1.53828210755381e-05,2.44121893371502e-05,4.93577580889507e-05
4.96119550289756e-06,7.98496663531241e-06,1.67264204101143e-05,2.96725825483243e-05
1.90121045024388e-05,1.52555060615616e-05,3.04431915825237e-05,6.47108021465241e-05
1.63552532243864e-05,2.28127908739007e-05,3.89687535927513e-05,7.81367976910384e-05
9.61777647792426e-06,1.1288266339498e-05,2.19437553975537e-05,4.28497982149759e-05
1.35156159616452e-05,1.59167336676174e-05,2.3930568896985e-05,5.33629185262476e-05
8.10125909987786e-06,1.110650464201e-05,2.05792349602559e-05,3.97869987021437e-05
9.98146574645236e-06,1.23975529887318e-05,3.40058676035031e-05,5.63848863386873e-05
1.11507319953591e-05,1.54260382281964e-05,2.3562822998478e-05,5.01395932220335e-05
2.08106274380974e-05,1.73414498224487e-05,2.88320088027091e-05,6.69840860632553e-05
3.28726591287811e-05,6.06105259634443e-05,0.000240583631072804,0.000334066816165029
3.17711597187206e-05,2.47199869672899e-05,3.26363926285286e-05,8.9127539314539e-05
1.3083109028507e-05,9.62676164893583e-06,2.14530949693396e-05,4.41629656467824e-05
1.31094791322684e-05,1.33031393429828e-05,1.81851324456134e-05,4.45977509208646e-05
4.24146629651833e-06,3.95934057681559e-06,7.76022433238305e-06,1.5961031205717e-05
2.81876646328155e-06,2.59152575221551e-06,6.27280716515074e-06,1.16830993806478e-05
3.20940329038891e-06,2.91368242593959e-06,6.79845208122098e-06,1.29215377975495e-05
3.12121513703613e-06,2.7166838574171e-06,6.44596010376821e-06,1.22838590982214e-05
3.37262231559223e-06,2.80916970823283e-06,6.81799199519001e-06,1.29997840190151e-05
3.44126963877826e-06,2.7205912620785e-06,6.37140700637873e-06,1.25332679072355e-05
3.42300807600529e-06,2.58264019796635e-06,6.54451980255419e-06,1.25501680765258e-05
3.00693706387963e-06,2.65068066611786e-06,6.42653920950113e-06,1.20841569394986e-05
2.98955176795707e-06,2.61768579316429e-06,6.315769990156e-06,1.19230075512774e-05
3.46305687809223e-06,2.68406907254833e-06,6.62113171605119e-06,1.27682576666917e-05
7.87307967896001e-06,1.88276160440265e-05,7.06003965692043e-05,9.73010922921909e-05
3.85314307129271e-06,3.22202050252847e-06,7.08894070507882e-06,1.41641042789e-05
3.32340109625573e-06,2.75640830171586e-06,6.65246357998519e-06,1.27322729779568e-05
3.46773729275424e-06,2.79827123712806e-06,6.76093844056164e-06,1.30269469704439e-05
3.59236888534737e-06,2.76480798018097e-06,6.63633700253999e-06,1.29935138680683e-05
3.72138921789434e-06,2.97069622524873e-06,6.98795995091301e-06,1.36800453940561e-05
3.87919416755925e-06,2.94086470215048e-06,6.63045735649269e-06,1.34505162262024e-05
1.00465957339931e-05,8.36550407672012e-06,1.9299110850553e-05,3.77112106612662e-05
0.000170986262834473,0.000367245794758092,0.000185002569034252,0.000723234626626817
3.11242429935573e-05,6.51171630768445e-05,4.63205305426206e-05,0.000142561936613022
7.72956337383534e-06,8.85931798753953e-06,1.56023357017853e-05,3.21912170631602e-05
7.72942246023236e-06,6.92526735299131e-06,1.22167765461935e-05,2.68714663594172e-05
3.96654269247838e-06,3.76459956018298e-06,8.347034935947e-06,1.60781771886084e-05
2.25541459620765e-05,2.11332244891451e-05,3.10865662098335e-05,7.47739366610551e-05
6.70079627298436e-06,6.80169081250942e-06,1.64900852283369e-05,2.99925723138307e-05
5.95164260218425e-06,4.59705790800895e-06,1.0546261333675e-05,2.10949618438682e-05
5.01789407224368e-06,5.97628675964799e-06,1.51654392197526e-05,2.61596200516442e-05
4.53492375366577e-06,3.96161456450045e-06,9.30881660029373e-06,1.78053549184599e-05
5.10382239729616e-06,5.03790846019294e-06,1.13366539914587e-05,2.14783848489478e-05
3.9160294186291e-06,5.3079178221621e-06,1.15648845185599e-05,2.07888317593511e-05
5.21912221126577e-06,5.6817714406635e-06,1.26719284240357e-05,2.35728220759649e-05
5.17621922482218e-06,3.74732119619962e-06,8.68204897033242e-06,1.76055893913542e-05
3.68308999883946e-06,3.51076534331297e-06,7.68440603767243e-06,1.48782613798249e-05
4.22325185318829e-06,3.5202382135581e-06,7.88248990849765e-06,1.5625979975244e-05
5.73139629997061e-06,4.95468255156486e-06,1.03586948231509e-05,2.10447736746863e-05
4.83044049010987e-06,5.51940712271341e-06,1.55874332665703e-05,2.59372808793936e-05
5.03217126167695e-06,5.18175460052564e-06,1.34111056506849e-05,2.36250315128875e-05
3.60852505309259e-06,3.45930118246542e-06,6.81837050889176e-06,1.38861967444498e-05
3.98007492170841e-06,3.53738704755681e-06,7.66955856468669e-06,1.51870205339519e-05
7.56059975459145e-06,7.07373387717288e-06,1.29793873894747e-05,2.76137210212391e-05
6.47721294246429e-06,4.93032227774224e-06,1.16049985406878e-05,2.30125337608943e-05
5.87489326806851e-06,6.58778689336699e-06,1.36926600062817e-05,2.61553401677172e-05
7.29135997322696e-06,6.01210285847935e-06,1.47180486987827e-05,2.8021511530489e-05
3.4760944928227e-06,3.02866605768207e-06,7.32235182462946e-06,1.38271123751342e-05
3.37558569641007e-06,3.13315691009816e-06,7.13195046605808e-06,1.36406930725663e-05
3.78689991894866e-06,3.95016429881169e-06,8.41432132394212e-06,1.61513855417025e-05
4.03991670627518e-06,3.35072510286808e-06,7.65338194304577e-06,1.5044023752189e-05
8.79966511561723e-06,8.95111756544502e-06,1.86252990983073e-05,3.63760817793695e-05
5.1343475133469e-06,5.18233273192319e-06,1.17320881201302e-05,2.20487683654003e-05
9.42560531217026e-06,1.06639267613312e-05,1.9661318496892e-05,3.97508505703935e-05
3.54142749506194e-06,3.19923930203757e-06,9.37187955533192e-06,1.61125463524314e-05
1.46131134410985e-05,1.36452920081639e-05,1.73122925753814e-05,4.55706980246439e-05
3.12002302169759e-06,3.40687696122038e-06,9.53558285394298e-06,1.6062482836861e-05
3.64620579143989e-06,3.26916290176888e-06,8.25097653971764e-06,1.51663452329264e-05
3.64449407714356e-06,2.97763304614515e-06,7.39039550135873e-06,1.40125226246474e-05
3.29729968300029e-06,2.84906862384782e-06,7.04906434273173e-06,1.31954326495798e-05
2.28965387049323e-05,2.97151751734479e-05,3.96824250638641e-05,9.22941389422444e-05
5.66005506014491e-05,4.64076835370877e-05,6.74914404600988e-05,0.000170499674598636
0.000127176745832337,0.000117264721395507,6.57734610015171e-05,0.000310214928229362
0.000181172018204421,9.59216163033971e-05,0.00011090196506647,0.000387995599574288
6.90619297704522e-05,3.5047276708834e-05,5.83388472238704e-05,0.000162448053703157
0.000138278587956925,0.000111081343549097,0.000141493148404345,0.000390853079910367
0.000571314229263501,0.00191995582067866,0.00119946279518391,0.00369073284512607
0.000958861058691518,0.00401601124777356,0.00168316703258678,0.00665803933905185
0.0010750450044076,0.00406652888494794,0.00247463576648282,0.00761620965583836
0.0011254512345488,0.00602926247346344,0.00352429889689216,0.0106790126049044
0.00124499138869725,0.00783052261013178,0.00501772792803046,0.0140932419268595
0.00110240854649296,0.00726857164927695,0.00514957999302069,0.0135205601887906
0.00100815604331684,0.00651173419522879,0.00338483559114472,0.0109047258296903
0.00125419701938802,0.00848271301044253,0.00550278994152676,0.0152396999713573
0.00108457225971505,0.00676624903743454,0.00429875109454574,0.0121495723916953
0.000812372417560369,0.00528268474037415,0.00309535098951445,0.00919040814744897
0.00099336068073551,0.00724529129798918,0.0049940373149761,0.0132326892937008
0.00120604598441106,0.00781962711300173,0.00475265453643355,0.0137783276338463
0.00118902202799881,0.00770495293009424,0.00459619475424557,0.0134901697123386
0.00122128442417018,0.00741707174412672,0.0037547108180407,0.0123930669863376
0.00102723751864782,0.00713407219402324,0.00353489205864723,0.0116962017713183
0.00118984778070668,0.00587042055776552,0.00292522071908535,0.00998548905755755
0.000882382281151319,0.00457805775279067,0.00258957460542867,0.00805001463937066
