potencia_x,potencia_y,potencia_z,potencia_total_xyz
4.53604870830595e-05,0.000344300847241897,0.000367486289259483,0.000757147623584439
0.000802821777643719,0.0023474526580812,0.00139632394010897,0.00454659837583389
0.000619392468591193,0.00163280502769093,0.00158341696845075,0.00383561446473287
0.00018912983331233,0.000296089698647752,0.000190548742146039,0.000675768274106121
0.000286315064160101,0.000255734637477593,0.000296564315531657,0.000838614017169351
0.000151301458340054,0.000440128761891883,0.000145799193304257,0.000737229413536195
4.17957233489054e-05,5.2681699618504e-05,3.53938679985339e-05,0.000129871290965943
6.82398478548201e-05,9.90120231875046e-05,0.000135743785451032,0.000302995656493357
2.38536491654838e-05,1.12165827856682e-05,2.20785928833175e-05,5.71488248344695e-05
0.000167908716113985,0.000363010979984672,0.000190433761675595,0.000721353457774252
7.19024935546024e-05,0.000246939133721726,5.67766225014009e-05,0.000375618249777729
3.10358708959683e-05,5.31680736166307e-05,2.21855382110009e-05,0.0001063894827236
3.65333263627566e-05,5.25154683361613e-05,3.10904815647087e-05,0.000120139276263627
0.000474076452347417,0.00133158954557165,0.00145354431284464,0.00325921031076371
0.000600929618179311,0.00170551801617019,0.00161230033979997,0.00391874797414947
0.000148585668192247,9.05298893682903e-05,0.000115207770745174,0.000354323328305711
4.11027088939687e-05,2.48313952021843e-05,4.08423234956303e-05,0.000106776427591783
6.04002594668686e-05,3.82956290098328e-05,6.79833403111157e-05,0.000166679228787817
0.000109001114432408,8.62866993961641e-05,0.000113385072871948,0.00030867288670052
0.000166857787237008,0.000173886910221412,0.000201980076991198,0.000542724774449618
5.98184817961357e-05,2.41159671553076e-05,3.48562832856547e-05,0.000118790732237098
0.000102271476890935,0.000150956301394132,0.00010057860684652,0.000353806385131586
0.000112641413945956,8.5462298725174e-05,9.76820977366087e-05,0.000295785810407739
0.000192423606713099,0.000210161248604332,0.000172060807713495,0.000574645663030927
5.2871171032165e-05,5.19734723218055e-05,4.01061272790054e-05,0.000144950770632976
3.71672252794364e-05,2.41438203114207e-05,2.58404284949555e-05,8.71514740858126e-05
1.77013368570551e-05,7.22778904994542e-06,1.57710130824018e-05,4.07001389894024e-05
1.18201813755226e-05,7.39548736570267e-06,1.2886760368761e-05,3.21024291099863e-05
0.000136743630136675,0.000200337981457385,0.00015895080278751,0.000496032414381571
0.000358365803969506,0.000294617556930889,0.000168771470289997,0.000821754831190393
0.000199840111616655,9.71550735234694e-05,0.000149021358415744,0.000446016543555869
0.000178959956313703,0.000195008199580852,0.000194269663959024,0.000568237819853579
0.000121597785806785,4.7681230537195e-05,0.000100907069910104,0.000270186086254084
6.58737361688995e-05,2.88738169271938e-05,5.76672021701485e-05,0.000152414755266242
0.000152128253071544,0.00011524461354039,0.000272921191473372,0.000540294058085306
0.000147229169629206,0.000142364044609641,0.00016883081928961,0.000458424033528457
6.48678809231381e-05,2.68640194538391e-05,6.02339828264065e-05,0.000151965883203384
6.61016631209443e-05,3.21394377247224e-05,4.69539810278806e-05,0.000145195081873547
5.61927741792277e-05,3.41057168048092e-05,4.59519092754687e-05,0.000136250400259506
4.9243686274168e-05,1.5684448343434e-05,3.42031281334724e-05,9.91312627510744e-05
6.25237820666029e-05,3.63855624267737e-05,6.20202486036032e-05,0.00016092959309698
0.000339743258898862,0.00015797837255963,0.000196702439438795,0.000694424070897286
8.38681841016734e-05,7.22936350594461e-05,6.38864091827081e-05,0.000220048228343828
7.75050221392435e-05,9.7675358568391e-05,6.46460144779191e-05,0.000239826395185554
0.000116658656455296,0.000126713557350267,0.000111469364344496,0.000354841578150059
3.93531125908318e-05,2.74220227125173e-05,3.58807670450959e-05,0.000102655902348445
0.000198663404497466,0.000223148585400806,0.00025705346197531,0.000678865451873582
0.00011058374691078,0.000271738820918228,0.000179051712045426,0.000561374279874435
2.38487016727104e-05,1.2255350751138e-05,2.90817424365869e-05,6.51857948604353e-05
0.00017381027102797,0.000128475453139947,0.000229254199387989,0.000531539923555905
0.000112662792640251,0.000144423714259932,0.000176110106862995,0.000433196613763179
0.000172926512687544,9.70786619712359e-05,9.43375933947895e-05,0.00036434276805357
0.000124067766990117,9.5570727687873e-05,7.66305441741135e-05,0.000296269038852103
0.000148675971331878,8.321938371085e-05,0.000120380088732918,0.000352275443775646
0.000143578283468485,8.73653119656688e-05,9.20431087211161e-05,0.00032298670415527
0.000103070571430732,7.53881645121256e-05,9.58442853321139e-05,0.000274303021274972
0.000179961563897115,6.76201510253696e-05,7.68506842741005e-05,0.000324432399196585
6.89143790391756e-05,2.13198419271842e-05,4.86299895917395e-05,0.000138864210558099
4.76654219192095e-05,1.6893204362072e-05,3.28577623262736e-05,9.7416388607555e-05
6.83638717987868e-05,1.84958495718312e-05,3.73088792077906e-05,0.000124168600578409
8.94566501486445e-05,3.0611211836138e-05,4.71903671418025e-05,0.000167258229126585
0.000231613801401546,0.000131347346833135,0.00020142557411822,0.000564386722352901
0.000139435443258495,7.62135598705353e-05,0.000105977467714502,0.000321626470843533
8.76999508589103e-06,4.43619464724131e-06,2.27543619313309e-05,3.59605516644633e-05
1.38664686348265e-05,9.23103371816499e-06,2.91651396377279e-05,5.22626419907193e-05
6.61934488488499e-05,3.87732104165821e-05,6.27972897500383e-05,0.00016776394901547
0.000166604984575475,0.000124417744009022,0.000147609452052341,0.000438632180636838
0.000103216642960656,8.84125803187329e-05,0.000109051860578048,0.000300681083857436
5.90176735308636e-05,4.70346902818716e-05,6.95515836234684e-05,0.000175603947436204
8.74495454291475e-05,3.21023665341893e-05,4.71458920303539e-05,0.000166697803993691
3.96341298214389e-05,1.90580020806314e-05,4.01454982181348e-05,9.88376301202051e-05
4.43437188363065e-05,1.38294109943281e-05,2.78308198236439e-05,8.60039496542785e-05
0.000204210240538365,0.000310574845590105,0.000234101207332932,0.000748886293461402
0.000125480144127465,7.22208695896439e-05,0.000138907594976914,0.000336608608694023
0.000120516693313777,0.000114752654538398,0.000120629178851067,0.000355898526703243
6.96457437547636e-05,8.08007402263411e-05,7.36214106155463e-05,0.000224067894596651
8.84495987386907e-05,0.000152053006482132,0.000179183904013382,0.000419686509234205
6.96058072085553e-05,3.042109030523e-05,6.2448689367439e-05,0.000162475586881224
0.00015014845460156,7.67156952246253e-05,0.000111854222190194,0.000338718372016379
0.000237327807325133,0.000411033303032771,0.000559088147804493,0.0012074492581624
0.000188645051527063,0.000497233489145395,0.000339022750316159,0.00102490129098862
0.000177307761878601,0.00058697235041698,0.00034254378372155,0.00110682389601713
0.000151457360500227,0.000183583391899679,0.000176507047999478,0.000511547800399385
0.000137615296738058,0.000221811226077222,0.000187086688978767,0.000546513211794048
0.000142393371418855,7.47228915477328e-05,0.000101930770540693,0.000319047033507282
0.000255371784734565,0.00044457087232005,0.000487900137714884,0.0011878427947695
0.000168554382853142,0.000177981897752786,0.000116019460624057,0.000462555741229984
0.00036689469764987,0.000288274406294904,0.000171229315697277,0.000826398419642051
0.000409257577920707,0.0001751998651796,0.000237204543796335,0.000821661986896642
0.000262977429371806,8.8130229425237e-05,8.09624740522921e-05,0.000432070132849335
0.000135909078413698,9.11049446648639e-05,5.02939489120821e-05,0.000277307971990644
0.000148194762135792,8.04530065347541e-05,7.80561139082706e-05,0.000306703882578817
0.000105911130453071,0.000155145556854633,0.000117610069990387,0.00037866675729809
0.000300074983270968,0.000303783776725126,0.000194453456505397,0.000798312216501491
6.90294646763819e-05,3.95402360135847e-05,6.01815207857084e-05,0.000168751221475675
1.69285483252413e-05,7.95353154256518e-06,1.87860703407771e-05,4.36681502085836e-05
2.2692257239692e-05,1.38779978956835e-05,2.99809846919885e-05,6.65512398273641e-05
8.22101346790351e-06,5.2960967496409e-06,1.46584935534018e-05,2.81756037709462e-05
2.6408276917105e-05,1.31287430012265e-05,3.06876183899757e-05,7.02246383083072e-05
5.35825282737804e-05,2.1524047686823e-05,4.83593806223269e-05,0.00012346595658293
9.43503260227816e-05,9.11367623654871e-05,0.000121829162839382,0.000307316251227651
0.000207691871864574,0.000401298786744376,0.000244132680347107,0.000853123338956057
0.000264790969099848,0.000219480937706162,0.000174627250344705,0.000658899157150715
0.000357856929418304,0.00037037401159991,0.000339469622651834,0.00106770056367005
3.71399331307181e-05,5.08917740112428e-05,0.000143390990122154,0.000231422697264115
1.49393169726447e-05,8.98396668949455e-06,2.61807345355994e-05,5.01040181977387e-05
0.000146622952738528,0.000250011140391935,0.000236857406605701,0.000633491499736164
7.69725397322856e-05,4.44211652810969e-05,5.6729979394675e-05,0.000178123684408058
8.44846952547695e-05,6.20962062940075e-05,6.4569903662051e-05,0.000211150805210828
5.23309618819531e-05,3.19647874434546e-05,3.32780082308122e-05,0.00011757375755622
2.12088322308092e-05,7.33199950612547e-06,1.8545506342215e-05,4.70863380791497e-05
0.000101718223868321,0.000140996606044723,0.000144440534299297,0.00038715536421234
7.37210440576177e-05,4.88593429048521e-05,5.50290691996223e-05,0.000177609456162092
7.45078863435156e-05,3.83810504022854e-05,4.66200163586381e-05,0.000159508953104439
0.000167726809558963,0.000336577899086227,0.000257210592921544,0.000761515301566733
0.000404551982034235,0.000790977268765528,0.000559353792600894,0.00175488304340066
3.22889232324987e-05,8.71562316740535e-06,2.2515563694845e-05,6.35201100947491e-05
2.47851610951627e-05,8.66142257597746e-06,2.15108173979749e-05,5.49574010691151e-05
0.0004443338334959,0.00108551526673074,0.00076741067396792,0.00229725977419456
4.44427414746201e-05,2.52498995038754e-05,3.87750041942222e-05,0.000108467645172718
8.66519469068681e-05,9.72130019749239e-05,0.000155841183680537,0.000339706132562329
5.50113835887138e-05,2.02143831671456e-05,3.75876565636334e-05,0.000112813423319493
4.65037869324411e-05,4.7104433473406e-05,4.57522028284848e-05,0.000139360423234332
9.99259059261083e-05,9.85470840637189e-05,0.000109355288046518,0.000307828278036345
0.000432315357432356,0.00121336414918322,0.00122159681167838,0.00286727631829395
4.1974297831336e-05,1.38928105833546e-05,2.79956789912435e-05,8.38627874059341e-05
0.000278938907128564,0.000440560715132316,0.000411404654901751,0.00113090427716263
0.000300607723643435,0.00139314249570475,0.000919561384226257,0.00261331160357444
9.14024020240899e-05,3.73950065706193e-05,5.49161519806471e-05,0.000183713560575356
0.000448551195645108,0.000912836560514229,0.000761276629725386,0.00212266438588472
5.75886710897524e-05,0.000200188733953475,0.00026560801743968,0.000523385422482908
0.000383507867441336,0.00100110933011791,0.000926720491244311,0.00231133768880356
0.000229881474402744,0.000646713986312193,0.000472324202119558,0.0013489196628345
9.99985351038829e-05,0.000119759341841609,9.74023433360171e-05,0.000317160220281509
0.000687274190273296,0.00194921814655596,0.00212380862538641,0.00476030096221566
0.000122292814231855,0.000193715969101041,0.000146348396361452,0.000462357179694348
0.000440157715888975,0.000333655528066993,0.000557350531889316,0.00133116377584528
0.000123658660334006,0.000230686226657961,0.000182630326560317,0.000536975213552285
0.000199445147988386,0.000126042202160699,0.000151763898464917,0.000477251248614002
8.55177561455736e-05,9.22815071071046e-05,0.000151288725906402,0.000329087989159081
5.98214993699065e-05,0.000108171077084694,7.92464936241221e-05,0.000247239070078723
0.000449866633684609,0.00160745297232863,0.00123067656895594,0.00328799617496919
0.000159328073426172,0.000128832720933232,9.64200373705566e-05,0.000384580831729961
1.80619817491025e-05,1.50175788610547e-05,2.05606079837164e-05,5.36401685938736e-05
3.33065346437243e-06,3.3387891464235e-06,1.03815930058825e-05,1.70510356166784e-05
6.88406043124427e-06,3.96101564094024e-06,1.19709591223503e-05,2.28160351945348e-05
5.31514235736566e-06,4.09657495415079e-06,1.03670719065856e-05,1.9778789218102e-05
1.05511989395933e-05,1.45557565677669e-05,1.44472447182197e-05,3.95542002255798e-05
4.77714595859309e-06,4.29716389902764e-06,1.01903617731318e-05,1.92646716307525e-05
3.44789425906567e-06,3.12304154315473e-06,8.81957464210894e-06,1.53905104443293e-05
3.53502556992718e-06,3.1449673336735e-06,9.10585334474854e-06,1.57858462483492e-05
3.47264452048712e-06,3.16455184776293e-06,9.65891783363115e-06,1.62961142018812e-05
3.32813698571913e-06,3.04190709467975e-06,9.02235707368063e-06,1.53924011540795e-05
3.52970788980984e-06,3.18568583170823e-06,9.51468990925447e-06,1.62300836307725e-05
3.26899829542795e-06,3.0990750190284e-06,8.90462550490778e-06,1.52726988193641e-05
3.44373838847292e-06,3.07059350105353e-06,8.98032091615271e-06,1.54946528056792e-05
3.49389021308137e-06,3.23206564219366e-06,8.59474356188865e-06,1.53206994171637e-05
4.61131446223994e-06,4.08013989485508e-06,9.82995144571704e-06,1.85214058028121e-05
6.88845011887207e-06,6.01115352995961e-06,1.23784852746999e-05,2.52780889235316e-05
5.50864250575387e-06,7.30602920175443e-06,1.25614707847673e-05,2.53761424922756e-05
3.68022535404294e-06,3.44435533098657e-06,9.06642414581574e-06,1.61910048308452e-05
6.91779593617397e-06,6.31856249043099e-06,1.17231446814556e-05,2.49595031080606e-05
6.6946702661111e-06,5.26749430330953e-06,1.10342586910852e-05,2.29964232605059e-05
5.77969949266757e-06,4.89159493837727e-06,1.04826026005334e-05,2.11538970315783e-05
9.39632420149214e-06,7.0606604963461e-06,1.18338380858679e-05,2.82908227837062e-05
4.15077516883805e-06,4.05115550090166e-06,8.6338122348399e-06,1.68357429045796e-05
3.49066515859841e-06,3.37207967033319e-06,8.31256550257426e-06,1.51753103315059e-05
3.22155980340443e-06,2.96278689263812e-06,7.38861106476766e-06,1.35729577608102e-05
3.13841709369406e-06,2.94455436362566e-06,7.40255602050676e-06,1.34855274778265e-05
3.11859627102479e-06,3.01424083219088e-06,7.41005939100369e-06,1.35428964942194e-05
3.27592237705646e-06,3.03989804734958e-06,7.2435200015073e-06,1.35593404259133e-05
3.36608100599875e-06,3.09217504284929e-06,7.96882667496494e-06,1.4427082723813e-05
3.69917136160569e-06,3.41213957389057e-06,9.59813899941051e-06,1.67094499349068e-05
3.26205899225314e-06,2.91904729253014e-06,7.85184705762758e-06,1.40329533424109e-05
3.12961624879371e-06,3.0288148833491e-06,7.96327192596925e-06,1.41217030581121e-05
2.9953887946238e-05,1.84226025805484e-05,2.99247359544416e-05,7.8301226481228e-05
1.97031797930535e-05,9.75828856271395e-06,2.47656166261119e-05,5.42270849818793e-05
3.26581765249142e-06,3.28285132363041e-06,8.46902861053697e-06,1.50176975866588e-05
3.08048896520354e-06,3.13782555783043e-06,8.15123444496253e-06,1.43695489679965e-05
2.96618154053039e-06,2.88142581563504e-06,7.34337072565027e-06,1.31909780818157e-05
3.02794258575731e-06,3.04662644996957e-06,7.17715806966062e-06,1.32517271053875e-05
3.06033035229255e-06,3.01334360238546e-06,7.45182905153917e-06,1.35255030062172e-05
1.47123728187834e-05,6.79120724197719e-06,1.21559591393135e-05,3.3659539200074e-05
3.27624831468027e-06,3.26808131839346e-06,8.18578666519853e-06,1.47301162982723e-05
8.54791476835097e-06,8.62541552768608e-06,1.29857719612924e-05,3.01591022573294e-05
3.05004521133789e-06,3.22440284997615e-06,7.09409780200381e-06,1.33685458633178e-05
3.42216289391013e-06,3.22093152938617e-06,7.55503478438644e-06,1.41981292076827e-05
3.0001714253441e-06,3.03930171117407e-06,7.23564915927117e-06,1.32751222957893e-05
2.97376686732089e-06,3.03814023875459e-06,7.19201381204126e-06,1.32039209181167e-05
3.02753326121227e-06,2.98049260250506e-06,7.34810671315095e-06,1.33561325768683e-05
2.90470174566806e-06,2.99101993348922e-06,7.38281707777077e-06,1.3278538756928e-05
2.98371568778989e-06,2.95625971554415e-06,6.93833039142932e-06,1.28783057947634e-05
3.03532458909366e-06,2.98441860690083e-06,7.20909507905815e-06,1.32288382750526e-05
2.98557153642232e-06,3.00493037294033e-06,6.82007411006175e-06,1.28105760194244e-05
3.04020924089883e-06,3.08574412877854e-06,7.1557804599552e-06,1.32817338296326e-05
2.97372434129193e-06,2.97459674025304e-06,7.06262746431635e-06,1.30109485458613e-05
2.9410817063812e-06,2.97189698203368e-06,6.98607645721107e-06,1.28990551456259e-05
3.01713851399046e-06,2.93683201374328e-06,7.27161025035522e-06,1.3225580778089e-05
2.85201398808612e-06,2.86707460232829e-06,6.93760819590709e-06,1.26566967863215e-05
2.99581184537174e-06,2.9169314220837e-06,7.01386508940616e-06,1.29266083568616e-05
2.87166657795653e-06,3.01751415326232e-06,7.42904455042874e-06,1.33182252816476e-05
2.94397944430922e-06,2.88024099295741e-06,7.41516926349348e-06,1.32393897007601e-05
2.94648724264005e-06,2.93865909654252e-06,7.04911791973887e-06,1.29342642589214e-05
2.9083993080046e-06,2.97230713260091e-06,6.93751065530578e-06,1.28182170959113e-05
3.15553269930468e-06,3.03812345480014e-06,7.15703205863675e-06,1.33506882127416e-05
2.87120415687755e-06,2.93826028578788e-06,6.64401560996993e-06,1.24534800526354e-05
2.97920736153673e-06,2.94737388730531e-06,7.01500275977666e-06,1.29415840086187e-05
2.96665252604132e-06,2.91796315326045e-06,7.1155807628825e-06,1.30001964421843e-05
3.07209383254676e-06,3.02432683713218e-06,6.88727250592939e-06,1.29836931756083e-05
2.89784633083335e-06,2.9309119892609e-06,6.99206923809264e-06,1.28208275581869e-05
2.96187011954415e-06,3.0826684119483e-06,6.87413244021202e-06,1.29186709717045e-05
2.9758514900691e-06,3.04118255703527e-06,7.01094628352842e-06,1.30279803306328e-05
2.91225663204082e-06,2.91414000443051e-06,7.1247597088823e-06,1.29511563453536e-05
2.85136110243675e-06,2.99253295733095e-06,6.94511805724035e-06,1.2789012117008e-05
2.92672020962628e-06,2.92789822390969e-06,6.91740779918476e-06,1.27720262327207e-05
2.82737191852407e-06,2.9986523730029e-06,6.53925188554822e-06,1.23652761770752e-05
2.8868047741579e-06,2.9527550684164e-06,7.0685564551693e-06,1.29081162977436e-05
2.88346382285092e-06,3.07665808339286e-06,7.26456219053482e-06,1.32246840967786e-05
4.27000294795451e-06,4.06137366607345e-06,8.52589047927627e-06,1.68572670933042e-05
4.20513712331436e-06,3.94519446057894e-06,9.72309641069695e-06,1.78734279945902e-05
2.95942141699385e-06,3.31555708753477e-06,6.99138255081355e-06,1.32663610553422e-05
3.14775494635904e-06,3.43500336084352e-06,7.69627876784934e-06,1.42790370750519e-05
4.76608149868691e-06,3.89130272775362e-06,8.77087073925364e-06,1.74282549656942e-05
3.27540946648714e-06,3.25947109103712e-06,7.61363984006993e-06,1.41485203975942e-05
3.14785961687169e-06,3.19108928033313e-06,7.43162750516338e-06,1.37705764023682e-05
3.08874616718577e-06,3.00177964435155e-06,7.32584076325944e-06,1.34163665747968e-05
2.98589048634549e-06,2.99127810004962e-06,7.54662184889365e-06,1.35237904352888e-05
4.89328274164316e-06,3.83383121591312e-06,8.1348046223454e-06,1.68619185799017e-05
2.90084693962018e-06,2.88380134079353e-06,6.82691802335899e-06,1.26115663037727e-05
2.94622255022585e-06,3.01009736938794e-06,7.67143306269982e-06,1.36277529823136e-05
2.99294536264963e-06,3.15474516056286e-06,7.17601365238488e-06,1.33237041755974e-05
2.95824228566995e-06,2.86266684034677e-06,6.97860755931824e-06,1.2799516685335e-05
2.87302094272635e-06,2.91226598098705e-06,7.09552598480893e-06,1.28808129085223e-05
2.89867770641379e-06,2.87548393322826e-06,7.17630009044701e-06,1.29504617300891e-05
2.94124933975082e-06,2.880349604192e-06,6.68509053067733e-06,1.25066894746201e-05
2.95190061130153e-06,2.83889679807803e-06,6.90930746210866e-06,1.27001048714882e-05
2.91044812348519e-06,2.91638009503264e-06,7.08046318374732e-06,1.29072914022652e-05
2.90882078574828e-06,2.82821749709138e-06,7.03404472447548e-06,1.27710830073151e-05
3.36828465640783e-06,3.42855280513314e-06,8.00470933031373e-06,1.48015467918547e-05
3.00925455777524e-06,2.98713436534976e-06,6.91590612567036e-06,1.29122950487954e-05
2.83743743658645e-06,2.83326983733496e-06,7.36038764600169e-06,1.30310949199231e-05
2.95230155770504e-06,2.89803679103964e-06,7.37162480003449e-06,1.32219631487792e-05
3.01967439296503e-06,3.00373368055889e-06,7.58461656613328e-06,1.36080246396572e-05
2.91345830577835e-06,2.93202283591837e-06,7.30121005963599e-06,1.31466912013327e-05
2.9940879893348e-05,0.000180462849303916,4.17875008553758e-05,0.00025219123005264
0.00013203580753127,0.000138163325106861,0.000107422854234393,0.000377621986872524
0.000265943081373841,0.000560081394568133,0.000391048741818217,0.00121707321776019
0.000382223531710488,0.00168131298004621,0.00180352270108853,0.00386705921284523
3.71003505738862e-05,1.83400563325118e-05,4.24171223439468e-05,9.78575292503448e-05
9.87375632034973e-05,6.08209514154349e-05,0.000107643420277221,0.000267201934896154
0.000398782411501452,0.000185679931932719,0.000226152388878715,0.000810614732312886
9.82198999473459e-05,6.24259929837102e-05,7.6488154563943e-05,0.000237134047494999
0.000787030059182924,0.0023100381581776,0.00192215355723622,0.00501922177459675
0.000135950461866542,0.000477396218615185,0.000538716044920672,0.0011520627254024
0.000183905813697042,0.000555535726625152,0.000794258143900506,0.0015336996842227
0.000194799236282194,0.000392027282074985,0.000273759523138933,0.000860586041496112
0.000310942252647039,0.000461261807429512,0.000426580637215604,0.00119878469729215
0.000321645357108099,0.000563099015510061,0.000685375744070759,0.00157012011668892
6.67307696207315e-05,0.000109142519976014,6.78548026949064e-05,0.000243728092291652
9.07213880450894e-06,4.95301707614726e-06,1.74290304588579e-05,3.14541863395141e-05
9.1104295471996e-06,5.5118321894723e-06,1.84973418021211e-05,3.3119603538793e-05
3.32021336150157e-05,6.130536794459e-05,3.76236993492071e-05,0.000132131200908813
4.53652148303906e-05,8.24852689275735e-05,5.07929306227747e-05,0.000178643414380739
0.000292218312012259,0.000109252094783045,9.96522442712647e-05,0.000501122651066568
0.000483198905016535,0.000257116882984096,0.000242906614232005,0.000983222402232636
0.00065306878860802,0.000126396551708555,0.000117692075664306,0.000897157415980881
0.000162146744310377,0.000118675935461561,0.000123733321079608,0.000404556000851546
0.000474781624368007,0.000151898125081634,0.000192586963592852,0.000819266713042493
0.000243724053832263,9.85468952382698e-05,0.000117987864801984,0.000460258813872517
0.000320694026402002,0.000114405521550356,0.000125463464518563,0.000560563012470921
0.000144659944899501,9.33522645820937e-05,0.000101407084821364,0.000339419294302959
0.000216742797358234,0.000101298341972663,0.000101802059191396,0.000419843198522292
0.000342813394208555,0.000130148026831826,0.000128019025994004,0.000600980447034384
0.000229087908061368,0.000102767427721857,7.89828607921537e-05,0.000410838196575379
0.000133669236735186,0.00011734475660037,0.000116559113201782,0.000367573106537338
2.38175052489591e-05,2.06534922317539e-05,3.39825990749324e-05,7.84535965556454e-05
6.77982101348718e-05,9.84295295156305e-05,0.000104827850534261,0.000271055590184763
0.000111243878928984,0.000182832524703775,0.000194705533663306,0.000488781937296064
0.000365872398673941,0.000896652300933753,0.000710978472002704,0.0019735031716104
0.00025188633298287,0.00102939718715657,0.00146595128459938,0.00274723480473882
3.25696115986457e-05,1.90725312867063e-05,3.24108387240589e-05,8.40529816094109e-05
5.97331009462208e-05,2.71780223624137e-05,4.84595255470344e-05,0.000135370648855669
0.000272874370228347,0.000330582595333868,0.00037150255473004,0.000974959520292255
0.000319893163535756,0.00021021517927669,0.000265662634543617,0.000795770977356063
0.000317967923029049,0.000191398396056301,0.000216382856573143,0.000725749175658494
0.000251274257088893,0.000186320706138031,0.000155378620354109,0.000592973583581033
0.000162843491283283,0.000316562652994528,0.000239016478256601,0.000718422622534412
0.0003111725528076,0.000156104315939893,0.000188727099083475,0.000656003967830968
0.000137419056985209,0.000361002684057322,0.000171095393342712,0.000669517134385244
0.000365824783207105,0.00185036461223572,0.000569926525489983,0.00278611592093281
0.000423546798499593,0.00139172874525981,0.000700815470352235,0.00251609101411164
0.000567148414809236,0.00305742567984091,0.00107120596913736,0.00469578006378751
0.00154807312859011,0.00543236116829161,0.00195821843982324,0.00893865273670496
0.00198695404811665,0.00635239333394934,0.00352301909360715,0.0118623664756731
0.00244238258039799,0.00497626657651352,0.00419849433571272,0.0116171434926242
0.00129051522028937,0.0039150847944758,0.00239965868391673,0.0076052586986819
0.00175674906808213,0.00472687111231559,0.00486870699218778,0.0113523271725855
0.00188554389560035,0.00282901550088305,0.00206236252074858,0.00677692191723198
0.000511368028751801,0.000410917031020877,0.000446893159483235,0.00136917821925591
0.000473333210624759,0.000656157402703221,0.000469388121777708,0.00159887873510569
0.000139762223673736,0.000174444211838413,0.000177934481789196,0.000492140917301346
0.000112148548860078,0.000117797107171462,0.000158048828546796,0.000387994484578335
5.8332237859697e-05,0.000112066193322176,0.00013647835136414,0.000306876782546013
4.28979892822507e-05,6.27922945006243e-05,8.19119012348694e-05,0.000187602185017744
6.84407587820651e-05,0.000177198616882031,0.000167167227053053,0.000412806602717149
8.6893877904964e-05,0.000249413279157093,0.000249748890906318,0.000586056047968376
5.17231762160396e-05,0.000144876767197283,0.000103956229611427,0.00030055617302475
7.00050134085199e-05,0.00049050121468024,0.000340711675132174,0.000901217903220934
2.74351099447799e-05,6.26138372417771e-05,6.81957697872167e-05,0.000158244716973774
5.44441269239026e-05,0.000181014205691252,0.000182380352556334,0.000417838685171489
2.82105145578204e-05,3.64558355750351e-05,9.43188634325158e-05,0.000158985213565371
1.51238049812626e-05,9.43748166056208e-06,3.98730556176604e-05,6.44343422594851e-05
1.53284855749752e-05,9.88871781328624e-06,3.66348769948573e-05,6.18520803831187e-05
1.195571358394e-05,8.93637817484991e-06,3.44016530268448e-05,5.52937447856348e-05
1.58687399756345e-05,1.52512114298764e-05,5.36509853179191e-05,8.47709367234299e-05
4.39578161646413e-05,6.67800485012759e-05,8.29888279555313e-05,0.000193726692621449
4.8252303837315e-05,0.000100308885855982,0.000125923765496207,0.000274484955189504
2.49239610927905e-05,3.35968945381131e-05,5.85941031136721e-05,0.000117114958744576
1.04510860675347e-05,8.35688468243134e-06,3.89549685663886e-05,5.77629393163546e-05
2.23819269580753e-05,6.21758734397715e-05,0.000114975757462253,0.0001995335578601
3.92102948107677e-05,0.000160659931643323,0.000142797547279295,0.000342667773733386
2.74669174634397e-05,8.98013817569126e-05,9.65088933338953e-05,0.000213777192554248
3.37021697763906e-05,5.06365866714395e-05,7.30613352937286e-05,0.000157400091741559
2.98572014606586e-05,1.51019298224263e-05,6.07352803465686e-05,0.000105694411629653
3.34423388498179e-05,5.72184306493034e-05,8.33852009893999e-05,0.000174045970488521
3.24667800481414e-05,9.04658489750101e-05,0.000118180831882031,0.000241113460905182
8.64306843958041e-05,0.000259125323600035,0.000208524091128367,0.000554080099124206
0.000122859254736277,0.000238410976246789,0.000172674993597577,0.000533945224580643
0.000109737649632535,0.000416000847936247,0.000303746186247074,0.000829484683815857
0.000134788735534578,0.000522341900282867,0.000328838633787034,0.000985969269604478
0.000100911147177994,0.000433509015643379,0.000283697169959587,0.000818117332780959
0.00013820009666685,0.000360186899885775,0.000276828163915885,0.00077521516046851
0.000136730554218973,0.00024662993159464,0.000192261936597122,0.000575622422410736
8.07224249358935e-05,0.000117885058584076,0.000138201520387356,0.000336809003907325
6.74384643576224e-05,0.000147844784460513,0.000162080465193264,0.000377363714011399
6.5430674495154e-05,0.00018140717225875,0.00017200273036166,0.000418840577115564
4.87065383599657e-05,0.000164381897329221,0.000153917786295139,0.000367006221984326
4.82437162659183e-05,0.000176108173904224,0.000178101321117834,0.000402453211287977
4.52422061045633e-05,0.000184326200918912,0.000224124572557746,0.000453692979581221
5.21740236939598e-05,0.000254281456252639,0.000303410389711808,0.000609865869658407
4.66430687169036e-05,0.000278398685377419,0.000224945046349133,0.000549986800443456
5.99271948236012e-05,0.000198043287536871,0.000185252385132278,0.00044322286749275
4.75325432025648e-05,0.000268854633819839,0.000179276735730317,0.000495663912752721
4.07444096418719e-05,0.000169018225424836,0.000136832126549304,0.000346594761616012
0.000118846516984122,0.000643585624186419,0.0003187705232878,0.00108120266445834
3.1913385478415e-05,0.000180208404229827,0.000129918750632552,0.000342040540340794
9.09240826851421e-05,0.000321581181838902,0.00027117589337673,0.000683681157900774
3.43336925719426e-05,0.000214611607421798,0.000206251331068334,0.000455196631062075
2.20989033909018e-05,0.000123739864449512,0.000146645275000907,0.000292484042841321
5.72981395020048e-05,0.000431488690085067,0.000271715742417449,0.000760502572004521
3.83262635498343e-05,0.00022721306351032,0.000195371069246202,0.000460910396306356
2.8315421930612e-05,0.000121792914336055,0.000149128472144686,0.000299236808411353
2.84343518725349e-05,0.000130367366784437,0.000145756295202444,0.000304558013859416
2.48842551691787e-05,0.000146217682914409,9.44622848164131e-05,0.000265564222900001
2.5281456418502e-05,0.00017140844672793,0.000145271177774991,0.000341961080921423
3.95916847037913e-05,0.000112595333381608,0.000157069118496698,0.000309256136582097
2.89690591591499e-05,0.000159372980344075,0.000144966468228566,0.000333308507731792
2.76271147375017e-05,0.000115835198572791,8.56390650185698e-05,0.000229101378328862
2.75737988715376e-05,0.000132075305575333,0.000133876996550221,0.000293526100997091
2.29754646562985e-05,0.000123787399232758,0.000129474618055049,0.000276237481944105
2.05199253117718e-05,8.8916806833726e-05,9.44640490817699e-05,0.000203900781227268
2.43785172860029e-05,0.000104403324558185,0.000109054619693636,0.000237836461537823
4.2680606328603e-05,0.000163485864913274,0.000152956647013191,0.000359123118255068
3.01693152548224e-05,0.000255536369348179,0.000230451607031978,0.00051615729163498
3.20575708642514e-05,0.000244535475613489,0.000207996822555167,0.000484589869032907
2.43782791761341e-05,0.000163972742248114,0.000161479324940036,0.000349830346364284
2.84535345288651e-05,0.000287806284853519,0.000271241165404889,0.000587500984787274
2.16432246661883e-05,0.000143114086166276,0.0001808958179607,0.000345653128793165
2.56716603322198e-05,0.000146265008124778,0.000166172152377247,0.000338108820834244
2.62099488208675e-05,0.000127439653136845,0.000150281224331956,0.000303930826289668
2.61111137586147e-05,6.44920969616019e-05,6.64433761737007e-05,0.000157046586893917
2.55500617413626e-05,0.000104139621262918,7.43783959829762e-05,0.000204068078987257
2.08747640220637e-05,8.25994483356975e-05,9.79615688921392e-05,0.0002014357812499
1.68224749195255e-05,5.24977565688194e-05,6.26527617406927e-05,0.000131972993229038
1.89068494012402e-05,6.21846584499838e-05,7.7892788942815e-05,0.000158984296794039
1.80183747199349e-05,7.51191238347449e-05,8.23741782222976e-05,0.000175511676776977
1.74367358770539e-05,8.34196359877164e-05,0.000108886091464075,0.000209742463328846
3.11531478885788e-05,0.000135667544008185,0.000146454391310963,0.000313275083207726
2.6855193485192e-05,0.000106462254182743,8.4328385744863e-05,0.000217645833412798
7.60648768586851e-05,0.000197754977609078,0.000180448319541133,0.000454268174008896
2.38030166656334e-05,0.000120618695089447,0.000156576673665461,0.000300998385420541
2.44113906009961e-05,0.000106417484389525,0.000141474736896575,0.000272303611887097
2.05298132322311e-05,8.75293204360343e-05,0.000152393989858196,0.000260453123526462
2.10554241219728e-05,4.8671955228582e-05,9.37100147214978e-05,0.000163437394072053
2.37340767194071e-05,6.25552100930196e-05,8.97100844299382e-05,0.000175999371242365
2.45441396209657e-05,7.2782668287528e-05,8.17482903964867e-05,0.00017907509830498
2.0206544304776e-05,5.46488133467982e-05,7.566157994905e-05,0.000150516937600624
1.93576502290806e-05,9.08428807917775e-05,7.80257894836684e-05,0.000188226320504527
2.49022084049485e-05,6.53710844708546e-05,7.78758636785153e-05,0.000168149156554318
2.14229878947006e-05,5.88109252412909e-05,9.13647976264834e-05,0.000171598710762475
2.41583413565651e-05,9.6488487182016e-05,0.000107749079494754,0.000228395908033335
2.4294682611103e-05,7.00405269552572e-05,0.000122623871884293,0.000216959081450653
1.95173773556393e-05,8.63851115101593e-05,7.84000588818094e-05,0.000184302547747608
2.32376041283294e-05,9.59465202305576e-05,0.000107728342724353,0.00022691246708324
2.84698977354697e-05,0.000116440321123331,0.00012565554809944,0.00027056576695824
2.14383894524491e-05,0.000114111863015364,0.000127465644599981,0.000263015897067794
2.28965074871626e-05,0.000115733221871055,0.00012587071941739,0.000264500448775608
2.33671721639398e-05,0.000149337383593477,0.000195250552690302,0.000367955108447719
2.99651697233097e-05,0.000177958676737956,0.000194813738273975,0.000402737584735241
2.20751107651086e-05,9.51445049349853e-05,0.000111750221148293,0.000228969836848387
4.4483107293601e-05,0.000344036120722113,0.000288607975779274,0.000677127203794988
2.18190789513945e-05,0.000101631351177373,0.000132486771777858,0.000255937201906626
2.06288491460963e-05,8.79456674053025e-05,0.000126957069574393,0.000235531586125792
2.4332576082774e-05,0.000145290036653452,0.00014470175716017,0.000314324369896396
2.35517660809625e-05,9.52566693729201e-05,0.00010428060231672,0.000223089037770602
3.02865793337043e-05,0.000132156535007178,0.000164825355237452,0.000327268469578334
2.28838656802538e-05,9.92097729517775e-05,0.000116647483385919,0.00023874112201795
2.51343204652748e-05,8.44234827721286e-05,9.20359032331991e-05,0.000201593706470603
1.94880260913026e-05,7.72973752805733e-05,0.000102046259048268,0.000198831660420144
3.28200403159599e-05,0.000102537997630874,0.000104293882878639,0.000239651920825472
3.48651924514068e-05,0.000166912941551082,0.000124769072092989,0.000326547206095477
3.22959647340797e-05,0.000206996261009796,0.000154715384413902,0.000394007610157778
2.87112754512098e-05,0.000197551645048174,0.000159307555791909,0.000385570476291293
2.26878524812016e-05,0.000101655247724259,7.49763884621734e-05,0.000199319488667634
2.09071505162458e-05,6.57640895030845e-05,6.9696071231907e-05,0.000156367311251237
1.92198136635447e-05,7.19062447383527e-05,5.91238184007036e-05,0.000150249876802601
1.86877933237525e-05,6.10708822170102e-05,6.65766690267919e-05,0.000146335344567555
2.63323556812327e-05,9.37038023070351e-05,0.00011722930391822,0.000237265461906488
2.95241706722151e-05,0.000269058247740603,0.000217589571282581,0.000516171989695399
1.56203590573256e-05,7.18095938274262e-05,0.000111907562559245,0.000199337515443997
2.89942101054249e-05,0.000141391112754152,0.000176865645877082,0.00034725096873666
3.79291942899018e-05,0.000108660597530822,0.000120080391824209,0.000266670183644933
1.41112895732467e-05,5.05260130062933e-05,8.00989451984665e-05,0.000144736247778007
2.33793458936336e-05,0.000127020335447999,0.000130905467969143,0.000281305149310776
3.49266940334552e-05,0.000148940497715504,0.000212519762401201,0.00039638695415016
3.08129794712941e-05,8.32965932057608e-05,0.000154332860775457,0.000268442433452512
3.04960457794058e-05,0.000113617350213286,0.00015995753927391,0.000304070935266602
6.0344308944205e-05,0.000176544054336666,0.000197831266575499,0.00043471962985637
5.22976443934917e-05,0.000276379458257948,0.000237637917616086,0.000566315020267525
3.046702813724e-05,0.000108315467946906,0.000143475800708179,0.000282258296792325
3.14905324424961e-05,0.000127837453426033,0.000182500420937259,0.000341828406805788
3.43256831997352e-05,0.000114034390108668,0.000133311861563602,0.000281671934872006
2.42216411122585e-05,7.77312995998156e-05,9.17365019765251e-05,0.000193689442688599
2.18338429450323e-05,4.05723079354667e-05,6.07412714851101e-05,0.000123147422365609
2.27049688029058e-05,3.84965911374108e-05,7.55096769483473e-05,0.000136711236888664
3.30055880699595e-05,0.000123232619979171,0.00022305391521017,0.000379292123259301
2.18760630595503e-05,3.4478926485716e-05,5.81666513635726e-05,0.000114521640908839
2.27498460648781e-05,3.85326077239875e-05,6.17928908746986e-05,0.000123075344663564
2.16114222446477e-05,5.59659626826097e-05,0.000118751045658512,0.000196328430585769
1.96193912605612e-05,3.75284014801178e-05,9.31608809793106e-05,0.00015030867371999
2.02020999545572e-05,5.27499694924487e-05,0.000117360894937601,0.000190312964384607
1.68242893771629e-05,3.4529185193492e-05,5.61378577966113e-05,0.000107491332367266
1.2961931466897e-05,2.74677198524357e-05,6.07435268214324e-05,0.000101173178140765
7.880670627679e-06,1.65556769263117e-05,5.72626997488515e-05,8.16990473028422e-05
7.81399931718556e-06,1.63751967951215e-05,7.08820190557023e-05,9.50712151680094e-05
7.02562719686385e-06,3.18245023255628e-05,8.27908819744852e-05,0.000121641011496912
4.38849524967808e-06,1.03804276292166e-05,2.84672616076981e-05,4.32361844865928e-05
5.44328799908546e-06,1.94735870130924e-05,3.66392790377042e-05,6.15561540498821e-05
2.50682269421865e-05,1.75578668672256e-05,3.72867315707732e-05,7.99128253801853e-05
2.74751933188194e-05,2.35363163885979e-05,3.87472482232203e-05,8.97587579306376e-05
1.07880826943811e-05,1.45814647544216e-05,1.83326176304431e-05,4.37021650792458e-05
4.89346524018881e-06,3.84990859325546e-06,1.20151860738339e-05,2.07585599072782e-05
2.95324950814003e-05,1.76286966416772e-05,2.55963226866707e-05,7.27575144097482e-05
4.19450341264475e-06,3.51821768801459e-06,9.01155688696743e-06,1.67242779876268e-05
0.000241252348186354,0.000204795635503433,0.000206511034398066,0.000652559018087854
0.000133113303535213,0.000180235859456235,0.000100754654612684,0.000414103817604132
0.000141558568880911,0.000192041161123365,0.000133254050043125,0.000466853780047401
0.000257436316728713,0.000174117479528899,0.000135537420229241,0.000567091216486854
9.74119313955871e-05,8.09737240299682e-05,7.92084019708155e-05,0.000257594057396371
7.82220662872664e-05,6.00473669105518e-05,5.18993052816709e-05,0.000190168738479489
0.000261880394054709,0.000589448828944673,0.000187476988168833,0.00103880621116822
0.000351324693261128,0.00180181739878514,0.000558845786840368,0.00271198787888664
0.000786697068496279,0.00287350374286663,0.00113985878905111,0.00480005960041402
0.00168652906941158,0.00463620485186071,0.00255469435701295,0.00887742827828524
0.000330458765665367,0.00159312957390463,0.000567441670569624,0.00249103001013962
0.000415798109866355,0.00283807350142963,0.00122996701052316,0.00448383862181915
0.000416400556128753,0.0019532342304907,0.000869211613939964,0.00323884640055942
0.00055081690238877,0.00290976619880627,0.00124153156493992,0.00470211466613497
0.000428581696778191,0.00266459177617383,0.00111359304780637,0.00420676652075839
0.000463000575246475,0.00288675081278598,0.00123830728838535,0.00458805867641781
0.000462395353415262,0.00296172810479867,0.00119403421133367,0.0046181576695476
0.000297753476531675,0.00131239369719265,0.000438381353486554,0.00204852852721088
4.01135381297934e-05,3.33964996679799e-05,4.99810134726236e-05,0.000123491051270397
4.89065704905729e-05,4.95972184654114e-05,4.30922548747341e-05,0.000141596043830719
1.15383305191179e-05,9.57189615502501e-06,2.02130563731113e-05,4.13232830472543e-05
7.846678680965e-06,5.75017886946115e-06,1.89320983370021e-05,3.25289558874283e-05
1.94750645488054e-05,2.44355314504887e-05,2.60328087078186e-05,6.99434047071127e-05
4.2970834172868e-06,3.87201890968689e-06,1.34324818572645e-05,2.16015841842382e-05
4.37492488503344e-05,4.85823796812674e-05,5.56066243867941e-05,0.000147938252918396
5.50116743323135e-05,6.42325716418598e-05,7.04053572657743e-05,0.000189649603239948
5.34856534920914e-05,4.92508479311051e-05,5.69182147581218e-05,0.000159654716181318
4.54497570451938e-06,3.51554015657351e-06,1.10826793961247e-05,1.91431952572176e-05
0.000141942576957536,0.000692507145017269,0.000313990471480123,0.00114844019345493
0.000284405972007296,0.00120363788774102,0.000624320059963941,0.00211236391971226
0.000288490848521173,0.000823698696518524,0.000400652105112146,0.00151284165015184
0.000391441370697522,0.00182977023485737,0.000789298777001653,0.00301051038255655
0.000143481490433931,0.000921232434491573,0.000339488449261117,0.00140420237418662
0.000306619078118638,0.00202234130827908,0.000842570639024657,0.00317153102542237
0.000219106288240612,0.000953222679805519,0.000415572012301097,0.00158790098034723
3.57566743145027e-05,4.38271238681401e-05,4.87612396898457e-05,0.000128345037872489
0.000294871282927434,0.0018177041577463,0.00088957232205522,0.00300214776272895
0.000490164458801518,0.00266900454577183,0.00121046145466595,0.00436963045923929
0.000154980705153456,0.000102129501508185,0.000105520067780365,0.000362630274442006
0.000138058217009164,9.23354539083828e-05,0.000107423152551239,0.000337816823468785
9.69695148598066e-05,4.30818495740669e-05,7.76734505390276e-05,0.000217724814972901
0.000118817930562347,3.46654662144765e-05,7.11967522576517e-05,0.000224680149034475
0.000199356334293465,0.000371360899042239,0.000190999945458405,0.000761717178794109
0.00016288818540652,0.000485826697506921,8.50496811428536e-05,0.000733764564056294
2.7728249099933e-05,4.04658564014636e-05,3.92705950250047e-05,0.000107464700526401
5.38663660403725e-05,4.1613061742079e-05,7.04741842632271e-05,0.000165953612045679
1.77538033732827e-05,1.21728940392733e-05,2.57289948011236e-05,5.56556922136796e-05
3.72090734442253e-06,3.07110375629357e-06,1.32844169162846e-05,2.00764280170007e-05
3.54937556893338e-06,2.88990486419837e-06,1.21791285592242e-05,1.8618408992356e-05
3.52925052896657e-06,3.01605083124159e-06,1.15961345339749e-05,1.81414358941831e-05
3.3399503281958e-06,2.74247247472675e-06,1.0367856760826e-05,1.64502795637486e-05
3.77678719003424e-06,3.18772058913541e-06,1.09500338688183e-05,1.7914541647988e-05
4.53795543105988e-06,4.29725395491355e-06,1.19272741999759e-05,2.07624835859493e-05
3.86304216602223e-06,3.02882168776662e-06,1.11856331611561e-05,1.80774970149449e-05
3.25941835175991e-06,2.90886248013488e-06,1.01141721697148e-05,1.62824530016096e-05
3.32352593778702e-06,2.88465253690444e-06,9.79366703297566e-06,1.60018455076671e-05
3.28521901306976e-06,2.96618608250709e-06,1.02773394716425e-05,1.65287445672193e-05
7.27671069696409e-06,4.81008865164409e-06,1.40995070630268e-05,2.6186306411635e-05
6.12913835148435e-05,5.67273537679338e-05,6.1662589353496e-05,0.000179681326636273
0.000156423786967967,0.00019891422450112,0.000158803490348675,0.000514141501817762
8.35214281666565e-06,6.47419558705855e-06,1.52632574448347e-05,3.00895958485589e-05
6.92427516889794e-06,5.58420859877034e-06,1.28604649305867e-05,2.5368948698255e-05
3.43296949659987e-06,3.09517477566911e-06,1.03771786785786e-05,1.69053229508476e-05
3.33629702886542e-06,3.2445034694991e-06,1.0661524063103e-05,1.72423245614675e-05
3.21995163749826e-06,2.98041713377104e-06,1.00043827931695e-05,1.62047515644388e-05
3.82457172265452e-06,3.25088496497398e-06,9.75153256681792e-06,1.68269892544464e-05
3.45809589954732e-06,2.98165918607957e-06,9.5244091169886e-06,1.59641642026155e-05
6.55434108959983e-06,5.07077109843645e-06,1.07582721803102e-05,2.23833843683465e-05
1.2138668687083e-05,1.59078928529295e-05,1.45219905442756e-05,4.25685520842881e-05
6.75507485841864e-06,6.17997573914883e-06,1.48475428721826e-05,2.77825934697501e-05
1.60430601852839e-05,2.47832033401611e-05,2.20792229813524e-05,6.29054865067974e-05
1.01396518315716e-05,9.54524583414882e-06,1.30641956566121e-05,3.27490933223325e-05
1.11331643680532e-05,2.12526562298102e-05,1.47572848373819e-05,4.71431054352453e-05
3.76964096825819e-06,3.46395305281081e-06,9.81883733813516e-06,1.70524313592042e-05
4.84173945320395e-06,4.3717767165198e-06,9.92597660911314e-06,1.91394927788369e-05
7.13736326888999e-06,5.23165740199326e-06,1.11656616875707e-05,2.3534682358454e-05
3.65482418795124e-06,3.48933030885951e-06,8.98924853690565e-06,1.61334030337164e-05
4.17777673423797e-06,3.6964144370853e-06,9.52087130254254e-06,1.73950624738658e-05
3.44919958459402e-06,3.42735406547639e-06,9.14628621438656e-06,1.6022839864457e-05
3.41482366897884e-06,3.28960730302814e-06,9.28472952774027e-06,1.59891604997472e-05
4.95245550521177e-06,3.57444925224997e-06,9.67372868180272e-06,1.82006334392645e-05
4.22082698374533e-06,3.39343361385178e-06,9.37099558262129e-06,1.69852561802184e-05
5.9449793115302e-06,3.51601987339093e-06,9.76871962632975e-06,1.92297188112509e-05
8.70328072527399e-06,5.4195391082574e-06,1.10774212385539e-05,2.52002410720853e-05
8.49187648410504e-06,4.54435447508689e-06,1.12125462868528e-05,2.42487772460448e-05
5.14515745587951e-06,4.46089517583738e-06,9.78774658281026e-06,1.93937992145271e-05
5.7811437713684e-06,4.32939685143027e-06,1.0358176051272e-05,2.04687166740707e-05
7.02749954815975e-06,9.67185169647591e-06,1.22257087395364e-05,2.8925059984172e-05
8.09987338506651e-06,7.8477348956343e-06,1.24453961200531e-05,2.83930044007539e-05
5.68109417125657e-06,4.767867932042e-06,9.6099526613362e-06,2.00589147646348e-05
5.46497916099115e-06,4.20520469441879e-06,9.93060106393624e-06,1.96007849193462e-05
7.13188244955751e-06,4.59255659536503e-06,1.00511380810921e-05,2.17755771260147e-05
5.41305200672341e-06,4.60355083262682e-06,9.45970362636402e-06,1.94763064657143e-05
5.22696583463163e-06,3.97808052277572e-06,9.63673960071827e-06,1.88417859581256e-05
4.89088995918893e-06,4.38681744655549e-06,9.8460959642408e-06,1.91238033699852e-05
3.93654274112842e-06,4.21007269900994e-06,9.38287731248797e-06,1.75294927526263e-05
6.24925380711871e-06,4.78881376293465e-06,1.00574082160117e-05,2.1095475786065e-05
3.79626937565381e-06,4.18730318671768e-06,9.17154005418554e-06,1.7155112616557e-05
6.12047579990765e-06,4.62383107347063e-06,9.63745374062848e-06,2.03817606140067e-05
4.51254903390312e-06,4.28478800869998e-06,9.72457658960014e-06,1.85219136322032e-05
5.06629377637352e-06,4.49993213772612e-06,9.86428751471835e-06,1.9430513428818e-05
5.1993960541212e-06,4.61725281041398e-06,1.00718406193018e-05,1.9888489483837e-05
5.77092070219746e-06,4.48909330024077e-06,1.00153570264659e-05,2.02753710289041e-05
5.17273532717236e-06,3.68960733098686e-06,9.24673473413477e-06,1.8109077392294e-05
4.13496701372518e-06,3.32785359297586e-06,8.91071688359788e-06,1.63735374902989e-05
2.00350494811982e-05,2.66062318800241e-05,2.46473448189919e-05,7.12886261802142e-05
9.17538340671034e-06,1.15757944297712e-05,1.28526016628916e-05,3.36037794993731e-05
5.26844159019387e-06,5.72100774009119e-06,9.99755762461012e-06,2.09870069548952e-05
5.16126550683069e-06,5.21417190886006e-06,1.02551343869995e-05,2.06305718026903e-05
3.87352546800171e-06,4.33143342784066e-06,9.16086541052003e-06,1.73658243063624e-05
3.62406591334106e-06,4.28915318126727e-06,8.95638174730076e-06,1.68696008419091e-05
3.64497948200074e-06,4.52347422937694e-06,8.62096638787049e-06,1.67894200992482e-05
1.14712735520924e-05,7.83101063518674e-06,1.15540630107206e-05,3.08563471979998e-05
3.84418164308328e-06,3.20368234136168e-06,9.00719736739976e-06,1.60550613518447e-05
4.16902204306837e-06,3.37323259166861e-06,8.80870850486135e-06,1.63509631395983e-05
3.34367989409709e-06,3.03811499048661e-06,8.15597057219951e-06,1.45377654567832e-05
4.98847098157785e-06,3.24519224377671e-06,9.62111159654345e-06,1.7854774821898e-05
4.82793652906811e-06,3.55890597668974e-06,8.66502421716917e-06,1.7051866722927e-05
3.73937754238842e-06,3.28784277476377e-06,8.56455212423627e-06,1.55917724413885e-05
4.43720796662289e-06,3.20653897728625e-06,8.61413543943987e-06,1.6257882383349e-05
3.44260997281188e-06,3.16544038582102e-06,8.72369928152823e-06,1.53317496401611e-05
3.5796996853968e-06,2.96641404058305e-06,8.6543761331054e-06,1.52004898590853e-05
4.21002533233037e-06,3.92057303922859e-06,8.9210289757945e-06,1.70516273473535e-05
4.89227476393341e-06,6.2305686584934e-06,1.05874253295407e-05,2.17102687519675e-05
3.82491986464594e-06,4.73613676021169e-06,9.65462887337144e-06,1.82156854982291e-05
6.05409679566259e-06,5.04746459795776e-06,1.03606171343569e-05,2.14621785279772e-05
3.61287452884422e-06,4.18807728942352e-06,8.77993840795092e-06,1.65808902262187e-05
3.56389980682704e-06,4.24914323405708e-06,8.68023689400124e-06,1.64932799348854e-05
6.88403443989842e-06,6.59682118958906e-06,1.0931221474891e-05,2.44120771043784e-05
5.40313432314789e-06,3.69444262535962e-06,9.62905018497848e-06,1.8726627133486e-05
5.65676713383773e-06,3.94165478663817e-06,1.02905971238279e-05,1.98890190443038e-05
5.18747025365714e-06,3.62790928805174e-06,9.31439716836808e-06,1.8129776710077e-05
4.41148566854699e-06,3.64292295636138e-06,8.89929569729699e-06,1.69537043222054e-05
7.53908366098072e-06,4.82368858948936e-06,1.02166746467342e-05,2.25794468972043e-05
2.91408027911984e-05,3.5461307963119e-05,3.9161069562214e-05,0.000103763180316531
1.05845784290611e-05,6.90981338774804e-06,1.25016908958709e-05,2.999608271268e-05
4.35280339547735e-06,4.11774346903618e-06,9.96188234075655e-06,1.84324292052701e-05
5.64415003884445e-06,3.74407901195265e-06,9.17276942475361e-06,1.85609984755507e-05
5.45230673235006e-06,3.7468761547585e-06,9.37420602290021e-06,1.85733889100088e-05
6.74338819250242e-06,4.07464243565876e-06,1.00581157752832e-05,2.08761464034444e-05
5.30658725549074e-06,3.45299272129543e-06,8.60247183249698e-06,1.73620518092831e-05
5.37002901701287e-06,3.99590615694647e-06,9.19230917971726e-06,1.85582443536766e-05
6.28211324776485e-06,4.38708774995131e-06,1.07064217166003e-05,2.13756227143164e-05
3.47239063935017e-06,3.00657493958542e-06,8.37794088019125e-06,1.48569064591268e-05
4.17757763018109e-06,3.29643191260728e-06,8.82710746844873e-06,1.63011170112371e-05
3.47087510551493e-06,2.92827820281962e-06,8.24676219300056e-06,1.46459155013351e-05
1.87121432153704e-05,1.81511389649444e-05,2.44086154869353e-05,6.12718976672501e-05
4.56629952645278e-06,3.84358557709139e-06,9.65792270492634e-06,1.80678078084705e-05
6.92400334120006e-06,6.34222966860227e-06,1.06248992358807e-05,2.3891132245683e-05
6.15720218723723e-06,4.07496043981606e-06,9.1817313991795e-06,1.94138940262328e-05
7.7283496243299e-06,4.94198497308084e-06,9.50614557757059e-06,2.21764801749813e-05
6.86527494780785e-06,4.70922419121915e-06,9.99627580205661e-06,2.15707749410836e-05
3.5272330807585e-06,3.32793471903486e-06,8.10936982979786e-06,1.49645376295912e-05
3.79856280278629e-06,3.49387250658856e-06,8.01995981727876e-06,1.53123951266536e-05
3.21609094014291e-06,3.03976035982269e-06,8.19354497151604e-06,1.44493962714816e-05
4.12513218471365e-06,3.32623019669409e-06,8.71285302467789e-06,1.61642154060856e-05
4.68550447027872e-06,3.65220715527307e-06,8.95532336008175e-06,1.72930349856335e-05
7.73903425918033e-06,5.69219475149067e-06,1.02441057563054e-05,2.36753347669764e-05
1.66925734439274e-05,8.10621909673843e-06,1.24559316095167e-05,3.72547241501825e-05
3.88822107877924e-06,3.59907947990124e-06,8.95918390967229e-06,1.64464844683528e-05
3.4429491124718e-06,3.22103919150895e-06,8.16583605387028e-06,1.4829824357851e-05
3.397574498963e-06,3.0737440894519e-06,8.54574466757725e-06,1.50170632559921e-05
7.06146524669678e-06,5.75626394372888e-06,1.07347575787127e-05,2.35524867691383e-05
4.493540547749e-06,3.43584802762401e-06,8.4354694979083e-06,1.63648580732813e-05
3.83819064358055e-06,3.16870799426556e-06,8.4477418614786e-06,1.54546404993247e-05
1.17802517221099e-05,6.12741929522583e-06,1.15912225192802e-05,2.94988935366159e-05
4.91255658272926e-06,3.62062511661872e-06,8.97745080066518e-06,1.75106325000132e-05
4.86347306351024e-06,4.16910177568666e-06,9.50763722748606e-06,1.8540212066683e-05
6.00206175188689e-06,5.39527051988116e-06,1.08197613371001e-05,2.22170936088682e-05
2.32493055348745e-05,5.17941214179305e-05,4.86228434410204e-05,0.000123666270393825
5.40986885640259e-06,1.37527336115489e-05,1.5371405716926e-05,3.45340081848775e-05
1.7629785842621e-05,2.29178469086524e-05,1.86480942870282e-05,5.91957270383016e-05
9.13676718225154e-06,1.61110484937381e-05,1.41199169767834e-05,3.9367732652773e-05
9.92658968397527e-06,1.92219645761982e-05,1.58702002608572e-05,4.50187545210307e-05
1.87903233444619e-05,2.27031704509681e-05,2.13588073146908e-05,6.28523011101208e-05
1.24304741128508e-05,2.03404788274698e-05,1.63499370105772e-05,4.91208899508978e-05
7.2472423858576e-06,1.84464017452735e-05,1.31225634542241e-05,3.88162075853552e-05
1.28210126167519e-05,1.46867752392796e-05,1.43900992897764e-05,4.18978871458079e-05
1.77287018938351e-05,2.99387274481579e-05,3.16416681116002e-05,7.93090974535932e-05
5.13182991142688e-06,4.99724944027398e-06,1.13705966497331e-05,2.1499676001434e-05
1.26932380073852e-05,1.62575310337272e-05,1.32893174912685e-05,4.22400865323809e-05
1.12767746181261e-05,8.36467460646152e-06,1.29856121380885e-05,3.26270613626761e-05
1.89982525906109e-05,3.14365052716172e-05,1.91062257591408e-05,6.95409836213689e-05
7.77089079168558e-06,2.08172429871657e-05,1.43240507563978e-05,4.29121845352491e-05
6.02629206257318e-06,1.93286481005563e-05,1.29355062652798e-05,3.82904464284093e-05
5.99923306019943e-06,1.72064814402075e-05,1.26126094533941e-05,3.58183239538011e-05
6.27253755400443e-06,1.73329408069241e-05,1.27528368016486e-05,3.63583151625771e-05
6.56366529540191e-06,1.30892272050964e-05,1.25759354445186e-05,3.22288279450169e-05
6.695071974741e-06,1.09265854078604e-05,1.17515478762216e-05,2.9373205258823e-05
5.21930692918868e-06,1.27051427283848e-05,1.09095957805337e-05,2.88340454381071e-05
5.73408235883467e-06,1.45913813584359e-05,1.33262318250983e-05,3.36516955423688e-05
5.37497759362523e-06,1.70321012258921e-05,1.40613176431764e-05,3.64683964626937e-05
5.12080946146051e-06,1.43782963849029e-05,1.3441807238801e-05,3.29409130851644e-05
3.32731244064338e-06,3.13340311393671e-06,8.30887857812599e-06,1.47695941327061e-05
2.23776249783981e-05,4.02563057999011e-05,2.88888107663463e-05,9.15227415446455e-05
9.77348019048534e-06,2.01614863036726e-05,1.69155499296599e-05,4.68505164238179e-05
8.75483939206e-06,1.72724210890282e-05,1.46806330368427e-05,4.07078935179309e-05
6.20501446673178e-06,1.65147358460311e-05,1.31787156810275e-05,3.58984659937905e-05
5.15154945550632e-06,7.82454041180397e-06,1.10755808854381e-05,2.40516707527484e-05
5.76830816365603e-06,9.19712524985485e-06,1.08516554865513e-05,2.58170889000622e-05
5.73189852143946e-06,7.46751091076149e-06,1.02183160748618e-05,2.34177255070627e-05
5.50036553057483e-06,1.72499381210865e-05,1.41043214187816e-05,3.68546250704429e-05
6.53037125032846e-06,2.80358965758094e-05,2.18810639552049e-05,5.64473317813428e-05
5.89233528169354e-06,1.65111113777436e-05,1.61771308632684e-05,3.85805775227056e-05
4.40601755259508e-06,7.12557331361158e-06,9.87877953103274e-06,2.14103703972394e-05
3.84679898064594e-06,4.39753785459387e-06,8.90236839846434e-06,1.71467052337041e-05
8.19167270866206e-06,1.96024813250446e-05,1.70470688248668e-05,4.48412228585735e-05
5.64203873638392e-05,0.000120243101211813,8.78123380475455e-05,0.000264475826623198
9.04299804789773e-06,1.88639032843939e-05,1.84925366233885e-05,4.63994379556801e-05
8.64103478898092e-06,1.50116448237583e-05,1.72311733208815e-05,4.08838529336208e-05
8.25292859453414e-06,1.19989297553814e-05,1.51144309892406e-05,3.53662893391561e-05
7.60356983755232e-06,1.03504046115505e-05,1.40761524530056e-05,3.20301269021084e-05
8.35832057552896e-06,1.04745443890076e-05,1.48591259856741e-05,3.36919909502107e-05
8.41032157755456e-06,1.08620850165449e-05,1.52797156767988e-05,3.45521222708983e-05
9.09995572415493e-06,1.04738135408462e-05,1.46463066248299e-05,3.4220075889831e-05
1.26928521795896e-05,2.21160018207003e-05,2.13931896404244e-05,5.62020436407144e-05
1.00937730893743e-05,1.0890244853703e-05,1.49757605886699e-05,3.59597785317473e-05
1.03844267330772e-05,1.19201199277961e-05,1.59625472327426e-05,3.82670938936159e-05
7.84107165586159e-06,1.18890920202183e-05,1.81391729639071e-05,3.7869336639987e-05
7.92154371886873e-06,9.25247360878954e-06,1.68154512668276e-05,3.39894685944858e-05
6.88088969615372e-06,8.43728963666922e-06,1.65419567005249e-05,3.18601360333479e-05
7.02104538253949e-06,7.33910133913418e-06,1.5305798676512e-05,2.96659453981857e-05
6.365483812257e-06,7.0177757090941e-06,1.37774577093842e-05,2.71607172307353e-05
7.86257544914038e-06,8.05198616859246e-06,1.6383280564116e-05,3.22978421818488e-05
6.81425741974225e-06,7.04840497865714e-06,1.38972140146252e-05,2.77598764130245e-05
6.89902890820238e-06,7.28262519172378e-06,1.51462558285065e-05,2.93279099284327e-05
6.86914040544518e-06,8.94164450440398e-06,1.5328068801181e-05,3.11388537110302e-05
7.8501708752443e-06,8.5026445285736e-06,1.52559358977764e-05,3.16087513015943e-05
7.28947085044345e-06,7.8668882729043e-06,1.51936932114274e-05,3.03500523347751e-05
1.02955540844799e-05,1.11802410441377e-05,1.81653298413853e-05,3.96411249700029e-05
6.73340740645077e-06,1.02241633094597e-05,1.33367962159642e-05,3.02943669318747e-05
9.18067588550532e-06,1.15044848794137e-05,1.62957147771202e-05,3.69808755420392e-05
9.66787426046661e-06,1.06590143494139e-05,1.55569375576993e-05,3.58838261675798e-05
8.65404507328805e-06,1.01570394058572e-05,1.59146830088652e-05,3.47257674880104e-05
8.78670373624098e-06,1.0266831586389e-05,1.47434290519455e-05,3.37969643745756e-05
9.22513714796999e-06,1.10157035958665e-05,1.61715140827023e-05,3.64123548265388e-05
8.04965857347124e-06,9.67397223820789e-06,1.42781894754017e-05,3.20018202870809e-05
7.93008408644796e-06,9.74395831339404e-06,1.33970535005838e-05,3.10710959004258e-05
7.59112001557903e-06,8.62916741808709e-06,1.29806989650184e-05,2.92009863986846e-05
7.76737353744795e-06,9.21217790296055e-06,1.30264165882171e-05,3.00059680286256e-05
7.05990497497501e-06,9.67717531995939e-06,1.35993406766787e-05,3.03364209716131e-05
7.82904168399506e-06,8.60499016269907e-06,1.32008623945593e-05,2.96348942412535e-05
8.06845196704884e-06,8.95790055150572e-06,1.40234116267541e-05,3.10497641453086e-05
6.92506660151045e-06,9.41608356476878e-06,1.28395924241121e-05,2.91807425903913e-05
3.3237521705943e-06,3.13465211319984e-06,8.28994877789344e-06,1.47483530616876e-05
1.30040558232939e-05,2.73184832049627e-05,2.99328471451366e-05,7.02553861733932e-05
1.32693731648663e-05,2.52675028841095e-05,2.18293214737356e-05,6.03661975227114e-05
1.0944778922998e-05,1.21430061497267e-05,1.42351570034234e-05,3.73229420761481e-05
3.39241027053159e-06,3.31705355038552e-06,8.44380141278409e-06,1.51532652337012e-05
1.50325466561118e-05,2.26820709019097e-05,2.96788176600132e-05,6.73934352180348e-05
1.39450574045194e-05,1.22658722527715e-05,1.93216355679422e-05,4.55325652252331e-05
6.36675916464609e-06,6.57965547494263e-06,1.31262552357357e-05,2.60726698753244e-05
7.09498786849448e-06,7.07840206378425e-06,1.2988834063703e-05,2.71622239959817e-05
1.14135529739095e-05,2.2423580536667e-05,2.14664280171675e-05,5.53035615277439e-05
1.40477536218978e-05,1.96238006794743e-05,2.12647874917098e-05,5.49363417930819e-05
8.58553229225394e-06,6.73271036249946e-06,1.38847088313153e-05,2.92029514860687e-05
8.07560659101978e-06,6.3721582750347e-06,1.30270772035567e-05,2.74748420696112e-05
8.43402761607668e-06,6.3153886149568e-06,1.29364680416377e-05,2.76858842726712e-05
7.0438481735099e-06,4.70864041942646e-06,1.21839633950024e-05,2.39364519879388e-05
7.1619822946485e-06,5.23401438570472e-06,1.28598289868622e-05,2.52558256672154e-05
7.57231706316726e-06,5.18605352756047e-06,1.37427420522739e-05,2.65011126430016e-05
7.57509926573268e-06,4.77477969690995e-06,1.22756526583121e-05,2.46255316209548e-05
7.56586797793715e-06,4.98842247567111e-06,1.2968370626115e-05,2.55226610797232e-05
6.71558344244958e-06,4.63715105801455e-06,1.19070106653208e-05,2.32597451657849e-05
3.2729782155826e-06,3.0750432729918e-06,7.72386944645407e-06,1.40718909350285e-05
4.05008098994915e-06,4.73724134353803e-06,8.81732799532945e-06,1.76046503288166e-05
5.64935605409821e-06,4.26475650331077e-06,9.74559902793012e-06,1.96597115853391e-05
1.07276635912999e-05,1.76637582520894e-05,1.72522543752537e-05,4.56436762186429e-05
5.99885332433505e-06,6.96622663819224e-06,1.45084203645596e-05,2.74735003270869e-05
7.63930228362731e-06,1.08240971777624e-05,1.50390387418468e-05,3.35024382032366e-05
7.6452298870359e-06,9.21409742351071e-06,1.54090581839231e-05,3.22683854944697e-05
8.95423641152864e-06,1.38893238770478e-05,1.52829577932618e-05,3.81265180818382e-05
1.06301334600591e-05,1.06633734089957e-05,1.64323194786772e-05,3.7725826347732e-05
6.06972630294971e-06,7.22215920580282e-06,1.43776247561533e-05,2.76695102649059e-05
7.1097757241669e-06,6.98392611973213e-06,1.43255208210644e-05,2.84192226649634e-05
5.94280064542131e-06,8.79990115517806e-06,1.32940722200723e-05,2.80367740206717e-05
5.96226658798972e-06,8.13576647810893e-06,1.35456962131119e-05,2.76437292792105e-05
5.83851107639751e-06,7.95218813975916e-06,1.3376549077212e-05,2.71672482933687e-05
6.14696073859021e-06,8.0261227447211e-06,1.375079690943e-05,2.79238803927413e-05
5.86423687637481e-06,8.77365472460701e-06,1.32366669526834e-05,2.78745585536652e-05
6.01614528840355e-06,7.53109807221252e-06,1.16329400560497e-05,2.51801834166658e-05
4.1930714345234e-06,3.723190880848e-06,8.6773197592355e-06,1.65935820746069e-05
4.11698100895407e-06,3.39888071754979e-06,8.16759306009563e-06,1.56834547865995e-05
3.91384236595117e-06,3.36911804700361e-06,8.11496932808715e-06,1.53979297410419e-05
3.86836788186276e-06,3.97115237569311e-06,8.10925971207771e-06,1.59487799696336e-05
3.54002514045828e-06,3.58282269646066e-06,8.25837378872031e-06,1.53812216256393e-05
3.28388761197187e-06,3.09200608415487e-06,7.64626451220216e-06,1.40221582083289e-05
5.92155907411378e-06,5.10881489185376e-06,1.04617320195414e-05,2.14921059855089e-05
5.85475281865408e-06,4.43280393160563e-06,1.0158932316265e-05,2.04464890665247e-05
5.53352605733326e-06,4.77122553135961e-06,1.10655624090683e-05,2.13703139977612e-05
3.80158918172461e-06,3.20247077547632e-06,8.0094937387524e-06,1.50135536959533e-05
3.75029604155993e-06,3.21558786841697e-06,8.01071961580608e-06,1.4976603525783e-05
4.00223091271253e-06,3.39336061371252e-06,7.72662112843347e-06,1.51222126548585e-05
5.853345860491e-06,7.48127837775944e-06,1.16221658454559e-05,2.49567900837063e-05
4.10794168143477e-06,3.6255179865072e-06,8.80753834871448e-06,1.65409980166565e-05
3.90494041253447e-06,3.45353786514063e-06,8.31873823581502e-06,1.56772165134901e-05
3.57095687537076e-06,3.34320232019829e-06,8.35765425428379e-06,1.52718134498528e-05
5.06361394875789e-06,5.61926108264261e-06,1.14570064146463e-05,2.21398814460468e-05
3.5000348041809e-06,3.2558157233479e-06,8.75920566965292e-06,1.55150561971817e-05
4.90604018859945e-06,4.106651662275e-06,9.64761814562597e-06,1.86603099965004e-05
3.83664087666654e-06,3.63633337035319e-06,8.84865031481706e-06,1.63216245618368e-05
3.6088837378972e-06,3.40309487467902e-06,8.11814350011207e-06,1.51301221126883e-05
6.96821944862479e-06,1.15551980313592e-05,1.58477964619673e-05,3.43712139419513e-05
4.48292579708866e-06,9.76821358239477e-06,1.20033886807859e-05,2.62545280602693e-05
5.28597090691472e-06,1.26876581519485e-05,1.3413312606222e-05,3.13869416650853e-05
4.4950228808243e-06,9.67797475711635e-06,1.21189547474872e-05,2.62919523854279e-05
4.90291872671299e-06,8.40215410344913e-06,1.15241579942847e-05,2.48292308244468e-05
5.33395316964519e-06,8.78765977108623e-06,1.18750014920098e-05,2.59966144327412e-05
4.78830332779204e-06,7.68978716985138e-06,1.1676302948423e-05,2.41543934460664e-05
4.54818355607082e-06,6.89669423465221e-06,1.17090849657004e-05,2.31539627564234e-05
4.67468305292329e-06,6.56349970766184e-06,1.09541303107365e-05,2.21923130713216e-05
5.04256461953342e-06,7.0103715786307e-06,1.01247673600183e-05,2.21777035581824e-05
6.18955179181111e-06,6.11700830963074e-06,1.0629521791812e-05,2.29360818932538e-05
6.64606992018676e-06,1.00536958107488e-05,1.24797878637853e-05,2.91795535947208e-05
5.11088372442644e-06,6.52572881747376e-06,1.08934271048224e-05,2.25300396467226e-05
4.77668247804103e-06,6.0353252308567e-06,9.54226214373287e-06,2.03542698526306e-05
5.28568215080245e-06,6.04004981703032e-06,9.31174111179439e-06,2.06374730796272e-05
5.25506622035402e-06,5.86029200494133e-06,1.08503551213402e-05,2.19657133466355e-05
1.4955705560617e-05,2.97292806631042e-05,2.63949434487407e-05,7.10799296724619e-05
5.58202517652488e-06,7.82390196389105e-06,1.25184089729658e-05,2.59243361133817e-05
7.88053265610437e-06,8.27535423284082e-06,1.34092902230208e-05,2.9565177111966e-05
1.0395974253514e-05,9.9108798604334e-06,1.41810099625717e-05,3.44878640765191e-05
7.83833526663616e-06,8.60760764674326e-06,1.30816424365275e-05,2.95275853499069e-05
4.32884917675809e-06,5.60859047058796e-06,1.010149185759e-05,2.00389315049361e-05
1.37137624301332e-05,1.18360352015897e-05,1.64887644826467e-05,4.20385621143696e-05
4.27772845912074e-06,3.26647233714766e-06,7.76782566282173e-06,1.53120264590901e-05
1.15570688317035e-05,8.371079753001e-06,1.50393221287772e-05,3.49674707134817e-05
3.50451255888853e-06,4.21977386242045e-06,8.07724724877989e-06,1.58015336700889e-05
6.00801436419637e-06,7.95601351777571e-06,1.16038506218493e-05,2.55678785038214e-05
6.24794378170776e-06,7.33104358216344e-06,1.08849686335643e-05,2.44639559974355e-05
5.74590982978143e-06,4.72189368049776e-06,9.13323988213251e-06,1.96010433924117e-05
6.2977923174586e-06,6.91743620228877e-06,1.11343152241064e-05,2.43495437438537e-05
9.73874492368002e-06,1.17282306994015e-05,1.35869752208469e-05,3.50539508439285e-05
3.23929879434002e-06,3.25584554110103e-06,7.88060320872585e-06,1.43757475441669e-05
1.09948995115605e-05,2.06111643229586e-05,2.90085597624243e-05,6.06146235969433e-05
7.24845769146613e-06,5.520034073582e-06,1.17487868708007e-05,2.45172786358488e-05
4.35944443972877e-06,3.50526978058294e-06,9.2418434574362e-06,1.71065576777479e-05
4.79515334296059e-06,8.96928107709673e-06,1.51247459577033e-05,2.88891803777607e-05
3.96640054160468e-06,4.02359207236951e-06,9.64365035324124e-06,1.76336429672154e-05
3.54826026121379e-06,4.16576289656169e-06,8.82798472919517e-06,1.65420078869707e-05
5.61968015796124e-06,4.80033162618812e-06,9.58187148191747e-06,2.00018832660668e-05
4.30249788530531e-06,6.24291922537192e-06,1.01787508320082e-05,2.07241679426854e-05
4.28578013195051e-06,4.02803742872756e-06,9.57194717769085e-06,1.78857647383689e-05
4.51088336194133e-06,3.92622333606625e-06,9.03377782898351e-06,1.74708845269911e-05
5.58162450406131e-06,5.66055616754692e-06,1.08815841005298e-05,2.2123764772138e-05
4.63978063049946e-06,4.21370848468595e-06,8.94518909323624e-06,1.77986782084217e-05
4.95960729816142e-06,3.89043522016599e-06,8.87589900394773e-06,1.77259415222751e-05
4.54991546630527e-06,4.1033945530445e-06,9.05186771110359e-06,1.77051777304534e-05
3.27919617190964e-06,3.04835904789989e-06,7.52495576285275e-06,1.38525109826623e-05
3.00827194604109e-06,3.09526125096973e-06,7.7245600767029e-06,1.38280932737137e-05
4.4713499982614e-06,5.69552826886741e-06,9.27931470942072e-06,1.94461929765495e-05
5.07717975455219e-06,4.55640330885014e-06,1.06630154195279e-05,2.02965984829302e-05
4.37794388340821e-06,3.63296604089606e-06,8.79144235261029e-06,1.68023522769146e-05
4.06126755568784e-06,3.72054606174206e-06,8.37993713278849e-06,1.61617507502184e-05
4.04072479036385e-06,3.61944029029757e-06,8.48212355172122e-06,1.61422886323826e-05
4.76858514197844e-06,4.92083863557499e-06,8.90705767035013e-06,1.85964814479036e-05
1.7330828700425e-05,3.43191646679965e-05,5.13156161081958e-05,0.000102965609476617
4.31524499122461e-06,3.87656595005627e-06,9.35906207113379e-06,1.75508730124147e-05
4.58961541057205e-06,3.64763969836933e-06,8.41303626527242e-06,1.66502913742138e-05
4.4886474394315e-06,3.8193271314973e-06,9.60052366359725e-06,1.79084982345261e-05
4.04285769204214e-06,3.36704223606695e-06,8.30121044168131e-06,1.57111103697904e-05
5.20041593918108e-06,3.42555354353164e-06,9.12765710738924e-06,1.7753626590102e-05
1.87400577291225e-05,1.88693039195806e-05,2.12069824245704e-05,5.88163440732735e-05
3.22899871198585e-06,2.96542922320072e-06,7.86330653975126e-06,1.40577344749378e-05
4.44046802735954e-06,3.80653831995769e-06,8.74299266307747e-06,1.69899990103947e-05
4.12214766073923e-06,3.5265259964858e-06,9.60025800641868e-06,1.72489316636437e-05
5.92146075553495e-06,4.34976216806504e-06,1.04955659666226e-05,2.07667888902226e-05
5.37815775363698e-06,6.09298520896334e-06,9.74124132007611e-06,2.12123842826764e-05
7.51100328156128e-06,6.02206898426508e-06,1.11203186609591e-05,2.46533909267854e-05
4.35420327908437e-06,3.90839648626041e-06,9.19112349013282e-06,1.74537232554776e-05
4.45410594943562e-06,3.31584993343235e-06,8.32434011484885e-06,1.60942959977168e-05
3.64130825963618e-06,2.96637785524913e-06,8.07693866169109e-06,1.46846247765764e-05
3.14683792255344e-06,2.73763379421609e-06,7.36402300188845e-06,1.3248494718658e-05
2.92087307631469e-06,2.69862677236352e-06,7.18921028115071e-06,1.28087101298289e-05
4.47708501713999e-06,3.91927259654229e-06,9.17927797814309e-06,1.75756355918254e-05
4.29133419786813e-06,3.09228214764578e-06,8.7312734352631e-06,1.6114889780777e-05
4.17037365251355e-06,3.05921704300131e-06,8.30338555046942e-06,1.55329762459843e-05
3.65561995902966e-06,3.00002924332043e-06,8.18366112240694e-06,1.4839310324757e-05
3.96533584224456e-06,3.05218432121795e-06,7.83682853297865e-06,1.48543486964412e-05
4.43252008292149e-06,3.65804043022531e-06,9.05115326606206e-06,1.71417137792089e-05
8.96505681995865e-06,1.86444346428199e-05,1.89503525451428e-05,4.65598440079213e-05
2.94021529667995e-06,2.67197607162478e-06,6.8035931140341e-06,1.24157844823388e-05
3.50083536855478e-06,3.15975247427485e-06,7.640629248278e-06,1.43012170911076e-05
5.78306849760834e-06,6.00983212101767e-06,9.67931081430233e-06,2.14722114329283e-05
1.15418964820445e-05,1.37081730289683e-05,1.53472810481522e-05,4.0597350559165e-05
5.26512220991954e-06,4.2287957238323e-06,9.76223250878976e-06,1.92561504425416e-05
4.91173268767362e-06,4.10696685993889e-06,8.82473369295435e-06,1.78434332405669e-05
2.87908296319177e-06,2.831266338612e-06,7.24222100422765e-06,1.29525703060314e-05
3.05974411622088e-06,2.7533161028806e-06,7.20381633116339e-06,1.30168765502649e-05
2.96742589718484e-06,2.7617723315824e-06,7.01351529282602e-06,1.27427135215933e-05
3.16078223933362e-06,2.8316843476829e-06,7.4022366234191e-06,1.33947032104356e-05
7.37136372590433e-06,4.47568054162101e-06,9.52420836461639e-06,2.13712526321417e-05
8.15773155631516e-06,2.06041164258649e-05,1.70327682660383e-05,4.57946162482183e-05
3.12888140500659e-06,2.86713874894073e-06,7.35018178692962e-06,1.33462019408769e-05
3.12624624722942e-06,2.89374939580871e-06,7.47084744961189e-06,1.349084309265e-05
3.23172968035911e-06,3.20930439342845e-06,7.72612705540549e-06,1.4167161129193e-05
8.04260153090405e-06,6.59255176224431e-06,1.01263013406146e-05,2.4761454633763e-05
3.28636072952875e-06,2.77547293013318e-06,7.51234116063417e-06,1.35741748202961e-05
2.97758993741019e-06,2.90457954195215e-06,7.13181577386412e-06,1.30139852532265e-05
3.08770595171339e-06,2.74715472655004e-06,6.99889660481896e-06,1.28337572830824e-05
3.02362828577055e-06,2.86070704961979e-06,7.18293013124171e-06,1.3067265466632e-05
2.89187382306806e-06,2.8398316780642e-06,6.97016159055662e-06,1.27018670916889e-05
3.13070020804903e-06,2.90081182835734e-06,7.19900395975841e-06,1.32305159961648e-05
2.96791497124813e-06,2.88555030826594e-06,7.01277041989365e-06,1.28662356994077e-05
5.88576226019404e-06,4.10344828721812e-06,1.04413071715352e-05,2.04305177189474e-05
5.64358093487413e-06,4.10504938698847e-06,9.5239534747195e-06,1.92725837965821e-05
1.47263072313632e-05,1.23650864932194e-05,1.51319180479785e-05,4.22233117725611e-05
1.28848901875044e-05,1.54257918440387e-05,2.09882505161957e-05,4.92989325477388e-05
3.61692056769341e-06,4.01237497295426e-06,7.70086831089348e-06,1.53301638515411e-05
3.05177315792424e-06,2.89303742614186e-06,7.22213436450995e-06,1.3166944948576e-05
3.93661310392591e-06,3.59249947716301e-06,7.89017342278862e-06,1.54192860038775e-05
2.91460914134241e-06,2.74626922374019e-06,7.2176110767934e-06,1.2878489441876e-05
3.19774739056044e-06,2.94909244493697e-06,6.89690844334932e-06,1.30437482788467e-05
2.96175399145747e-06,2.81504037531188e-06,6.97389139059478e-06,1.27506857573641e-05
2.85551591186893e-06,2.81805085656348e-06,7.0036085092571e-06,1.26771752776895e-05
2.98484629341417e-06,2.71221317431938e-06,6.71734333144915e-06,1.24144027991827e-05
4.66538479730612e-06,4.02386303129132e-06,7.64718680864995e-06,1.63364346372474e-05
2.91956593090438e-06,2.77219792264754e-06,6.73732734681384e-06,1.24290912003658e-05
6.58177277459267e-06,5.51682413657933e-06,9.42396889718062e-06,2.15225658083526e-05
2.80852653751744e-06,2.63187718912899e-06,6.45770401845814e-06,1.18981077451046e-05
2.80078219952183e-06,2.63998024602093e-06,6.36377676432328e-06,1.1804539209866e-05
2.92696308743751e-06,2.82587503305469e-06,6.87910257867267e-06,1.26319406991649e-05
3.00005958527959e-06,2.63125376667705e-06,6.77415098875458e-06,1.24054643407112e-05
2.7543151232712e-06,2.72416683108923e-06,6.79944474945863e-06,1.22779267038191e-05
2.79027783221737e-06,2.59252607164558e-06,6.49567399996678e-06,1.18784779038297e-05
4.01379519942824e-06,2.89853362703292e-06,7.25969722423973e-06,1.41720260507009e-05
5.50493095670599e-06,4.89421602482799e-06,8.75212159629034e-06,1.91512685778243e-05
3.03703773758876e-06,2.90741311639706e-06,7.52076629492821e-06,1.3465217148914e-05
3.62779843589556e-06,3.20345148013314e-06,7.93434519480199e-06,1.47655951108307e-05
3.98462793445299e-06,4.00384461508594e-06,7.83197598721605e-06,1.5820448536755e-05
4.83455337776083e-06,3.93510790426629e-06,8.6752495085481e-06,1.74449107905752e-05
2.89768479928189e-06,2.6497068731941e-06,6.82618344341794e-06,1.23735751158939e-05
3.0926935344974e-06,2.65562690201984e-06,7.12263078675383e-06,1.28709512232711e-05
4.40229817313091e-06,4.03659365953029e-06,7.69703119086567e-06,1.61359230235269e-05
5.06376850541361e-06,4.41837136378523e-06,8.74125265529303e-06,1.82233925244919e-05
3.06935740271369e-06,2.63983524046845e-06,6.92446673485482e-06,1.2633659378037e-05
2.93442431927313e-06,2.60087425880939e-06,6.76643199083228e-06,1.23017305689148e-05
2.95693328537849e-06,2.77419701263326e-06,6.8349009703377e-06,1.25660312683494e-05
2.88202160966611e-06,2.71698846316218e-06,6.63455487394178e-06,1.22335649467701e-05
4.46186177436572e-06,4.25239197010413e-06,7.60450750084147e-06,1.63187612453113e-05
4.5480229254177e-06,4.094034191172e-06,8.1033721937703e-06,1.674542931036e-05
3.06751097939613e-06,2.72094630131433e-06,7.00441998569395e-06,1.27928772664044e-05
2.35801972348153e-05,2.17365128981789e-05,4.63823506985666e-05,9.16990608315608e-05
8.86278190263397e-06,1.64953228834145e-05,1.60997303733215e-05,4.14578351593699e-05
9.65102975693439e-06,9.2980518107961e-06,1.3654586233606e-05,3.26036678013365e-05
5.46105479949368e-06,1.59743818307216e-05,1.50982100785085e-05,3.65336467087238e-05
4.75210524396102e-06,4.69494208710649e-06,9.06836176729695e-06,1.85154090983645e-05
3.73262473960411e-06,3.2139581982129e-06,7.77074740419865e-06,1.47173303420156e-05
3.46781516775367e-06,3.51459843914003e-06,7.96140708438721e-06,1.49438206912809e-05
3.49280037306863e-06,3.42045824677313e-06,7.31738121165527e-06,1.4230639831497e-05
7.02269177064639e-06,9.45922167470377e-06,1.28029564718803e-05,2.92848699172305e-05
5.64640480829415e-06,4.17681948776161e-06,8.91745638353382e-06,1.87406806795896e-05
4.53110980638659e-06,3.47480040308825e-06,8.60836671076091e-06,1.66142769202358e-05
4.37259214638677e-06,3.3020292465985e-06,8.12644023198643e-06,1.58010616249717e-05
1.02374251114008e-05,7.85182480580766e-06,1.22401792218335e-05,3.03294291390419e-05
7.14663253139249e-06,8.34775633210174e-06,1.2512531149421e-05,2.80069200129153e-05
5.14735244005881e-06,5.0013991604535e-06,9.11746816317296e-06,1.92662197636853e-05
5.88856385230821e-06,6.37313931621727e-06,1.04678517186524e-05,2.27295548871779e-05
4.280175316097e-05,5.28841913416598e-05,4.21952036363974e-05,0.000137881148139027
3.68555601754538e-06,3.13696972209214e-06,1.03973605974283e-05,1.72198863370658e-05
3.15886332877833e-06,2.84179990293419e-06,8.18300982053425e-06,1.41836730522468e-05
3.0371287079684e-06,2.67666899047892e-06,7.63392833814976e-06,1.33477260365971e-05
1.60787664230384e-05,1.63992661556511e-05,2.23449870850118e-05,5.48230196637013e-05
3.2789717260182e-06,3.44152641015166e-06,8.51616900952389e-06,1.52366671456938e-05
1.46541561993807e-05,1.42352500797173e-05,2.24004189965458e-05,5.12898252756438e-05
4.97319174454191e-05,1.84964981542722e-05,3.19795950333743e-05,0.000100208010633066
3.4614334859039e-05,3.21656324357132e-05,4.93479282230195e-05,0.000116127895517772
4.65773931169306e-05,5.26791986640461e-05,4.72328718798281e-05,0.000146489463660805
2.20842012191044e-05,3.29273611674721e-05,2.66876582645516e-05,8.16992206511282e-05
9.3573573478765e-05,6.95645943647646e-05,0.000114245462481351,0.00027738363032488
0.000100072557446243,6.08912110828786e-05,6.26947405388888e-05,0.000223658509068011
0.000197355028640642,0.00013922827754398,0.000130727868881078,0.000467311175065699
0.00013896672303105,0.000140599551861501,0.000101658305878146,0.000381224580770697
0.000266759577044685,0.000158940273698238,0.000158943436325307,0.000584643287068231
0.000414847183051694,0.00228545649853164,0.00103211956364863,0.00373242324523196
0.000381358604985169,0.0019931873432258,0.000933120063329926,0.00330766601154089
0.000316972969528204,0.00177584293379796,0.000823470222721094,0.00291628612604726
0.000331491953720786,0.00226172823185654,0.000659706823276698,0.00325292700885403
0.000367515929422476,0.00199938433533335,0.000792996281068505,0.00315989654582433
0.000357048875326661,0.00139711959142467,0.000637345551573437,0.00239151401832477
0.000449377915173294,0.00211618892995768,0.000746607692273567,0.00331217453740454
0.000432118123677731,0.00196123943154652,0.000969409976086219,0.00336276753131047
0.000106879953333367,0.000119840991460019,9.27234326509912e-05,0.000319444377444376
0.000119123332712802,6.49866345765533e-05,9.94639115461839e-05,0.000283573878835539
0.000175924608769454,9.89505166358262e-05,9.90770037963296e-05,0.00037395212920161
0.000151581286174725,8.72794812320323e-05,0.000130083423074309,0.000368944190481066
6.78824265170931e-05,3.73288498136747e-05,5.00529670299577e-05,0.000155264243360725
3.88450832726625e-06,3.16304917875518e-06,1.59247930050014e-05,2.29723505110228e-05
1.76759225829054e-05,9.28716885920342e-06,1.90938654592479e-05,4.60569569013568e-05
2.82321987175688e-05,1.49403949627378e-05,2.59904306118908e-05,6.91630242921975e-05
8.32215584656661e-05,5.35708428062362e-05,5.84407796043785e-05,0.000195233180876281
2.59657514029433e-05,1.1987504914532e-05,2.38944660520154e-05,6.18477223694907e-05
3.02440543733753e-05,1.11861309345344e-05,1.99305689030888e-05,6.13607542109985e-05
3.04733911611027e-05,1.2497825669854e-05,2.37849055091649e-05,6.67561223401216e-05
3.16300234723811e-05,1.63176448679409e-05,2.42282450229348e-05,7.21759133632568e-05
2.68063984206287e-05,1.64832597971914e-05,2.78312948713361e-05,7.11209530891562e-05
1.7377769187996e-05,1.28618546731741e-05,2.09883088459203e-05,5.12279327070904e-05
2.20613114373278e-05,1.25581989582294e-05,2.41233847565528e-05,5.874289515211e-05
1.85004956835993e-05,1.34439859972279e-05,2.53749807453549e-05,5.73194624261822e-05
1.20363187314488e-05,6.57551520622135e-06,1.47892539563238e-05,3.34010878939939e-05
5.0441263292943e-06,3.68954841904701e-06,1.18341438423696e-05,2.05678185907109e-05
4.83992455532919e-06,3.34226684109473e-06,1.1196828966738e-05,1.9379020363162e-05
1.22776017391188e-05,1.07515109923403e-05,1.92625565516792e-05,4.22916692831382e-05
1.04406654600896e-05,9.65552701984922e-06,1.98355092831491e-05,3.9931701763088e-05
1.36168432362434e-05,1.23377709791258e-05,1.79433085883729e-05,4.38979228037422e-05
5.40026514311329e-06,3.88380095224556e-06,1.29553001746582e-05,2.22393662700171e-05
8.46519672066677e-05,7.48616822257989e-05,7.60231347641467e-05,0.000235536784196613
7.33710084562416e-06,1.12387958379028e-05,1.74710590044872e-05,3.60469556880142e-05
1.19808073654161e-05,1.20064428887186e-05,1.89256735520843e-05,4.29129238062189e-05
4.58024534934811e-06,4.03631783661934e-06,1.0395862261233e-05,1.90124254472005e-05
1.47437755979434e-05,2.81338316257601e-05,2.78747002237042e-05,7.07523074474077e-05
2.75158493413675e-05,3.10032026220143e-05,4.48963805830574e-05,0.000103415432546439
1.6203492215454e-05,3.93806983857049e-05,3.09553984188106e-05,8.65395890199694e-05
2.04246560868929e-05,4.31430017612964e-05,4.48277358376278e-05,0.000108395393685817
1.18853263721811e-05,1.43991306239968e-05,2.22253689875767e-05,4.85098259837546e-05
1.05331632772775e-05,2.68230453056318e-05,3.03517749097586e-05,6.77079834926678e-05
1.21037189321022e-05,2.7476533509708e-05,3.27632142719344e-05,7.23434667137446e-05
1.07753943952151e-05,2.33924320249083e-05,3.45563859912892e-05,6.87242124114126e-05
7.20555209175539e-06,8.24675640325394e-06,1.61651044802868e-05,3.16174129752961e-05
6.63847160123141e-06,1.25305969611788e-05,1.62233389726213e-05,3.53924075350315e-05
1.01826205057436e-05,3.91671467943593e-05,4.81696428319905e-05,9.75194101320934e-05
4.66934667446647e-06,7.81265771425285e-06,1.41737048259975e-05,2.66557092147168e-05
9.91609019028051e-06,2.86711452247805e-05,4.37718653355694e-05,8.23591007506304e-05
1.26188577856163e-05,3.14441845362393e-05,4.26185762394125e-05,8.66816185612681e-05
1.48992564418125e-05,2.77656796273066e-05,3.39531837059741e-05,7.66181197750932e-05
1.26518893593969e-05,2.39656021421728e-05,3.19271380683461e-05,6.85446295699159e-05
7.59517158649562e-06,9.93421548883146e-06,1.54349411513375e-05,3.29643282266646e-05
8.1064987914795e-06,7.16023563688809e-06,1.46588176580767e-05,2.99255520864443e-05
7.50963719490178e-06,3.96453054632419e-06,1.24191224867713e-05,2.38932902279973e-05
8.25581714716788e-06,5.27480821971981e-06,1.39407187451967e-05,2.74713441120844e-05
1.05201493260586e-05,8.31622012462977e-06,1.40681085202629e-05,3.29044779709513e-05
7.91405473649552e-06,9.58315598624726e-06,1.81755028064358e-05,3.56727135291786e-05
5.47459475410295e-06,5.83380458496686e-06,1.30554739796698e-05,2.43638733187397e-05
6.68175091371914e-06,5.73065359272193e-06,1.51749192566838e-05,2.75873237631248e-05
5.26709770077509e-06,4.67771001249296e-06,1.42631201986654e-05,2.42079279119335e-05
8.22972757913896e-06,6.19944510870141e-06,1.42729994430848e-05,2.87021721309252e-05
5.01179676581766e-06,3.94964046383452e-06,1.2063165493309e-05,2.10246027229612e-05
6.91683326541469e-06,5.90857922918102e-06,1.46961486824295e-05,2.75215611770252e-05
6.80792386130832e-06,5.52497768234946e-06,1.53137285395789e-05,2.76466300832367e-05
4.98488073259175e-06,3.5965616481578e-06,1.02644044797047e-05,1.88458468604542e-05
1.37176829239286e-05,2.52186108192987e-05,3.45320867062014e-05,7.34683804494287e-05
3.09709028849293e-05,3.02351298526662e-05,4.73493136107351e-05,0.000108555346348331
2.57237761039491e-05,3.62847158555508e-05,4.36736726847545e-05,0.000105682164644254
3.51818083159361e-06,3.21784457861397e-06,1.02020757742685e-05,1.6938101184476e-05
1.53433692692257e-05,1.84698562807032e-05,2.05706075409675e-05,5.43838330908964e-05
6.06572530439652e-06,1.20101164195904e-05,1.70394473507166e-05,3.51152890747035e-05
6.30581128682966e-06,1.11025748933942e-05,1.87532661796378e-05,3.61616523598616e-05
1.68987985837354e-05,3.17095868727121e-05,3.96888012833073e-05,8.82971867397547e-05
8.64955532876067e-05,8.8679045337824e-05,8.62743177458174e-05,0.000261448916371248
6.73449166691576e-05,2.24238558141872e-05,3.26288015385082e-05,0.000122397574021853
5.61505065773695e-06,6.61490865463735e-06,1.47499261522326e-05,2.69798854646069e-05
9.06957573451786e-06,6.21949108428697e-06,1.48205865229625e-05,3.01096533417674e-05
5.71241379163197e-06,4.46187375879993e-06,1.13688604008049e-05,2.15431479512369e-05
4.67639300748667e-05,4.19985180815519e-05,3.55727903064402e-05,0.000124335238462859
8.58090318759425e-05,6.52047311382898e-05,2.36991023331967e-05,0.000174712865347429
1.13927582426172e-05,1.19233313472342e-05,1.74909891852433e-05,4.08070787750948e-05
6.14243955935428e-06,4.83413503108665e-06,1.29189439240167e-05,2.38955185144577e-05
8.80496074487866e-06,7.37830669121381e-06,1.61818411355481e-05,3.23651085716406e-05
1.22627376330296e-05,1.13451508830542e-05,1.78148340200171e-05,4.14227225361009e-05
5.11075261849302e-06,4.18436285497451e-06,1.20056592770372e-05,2.13007747505048e-05
4.54080576291933e-06,3.58159226537107e-06,1.17659160046862e-05,1.98883140329766e-05
4.44117532305992e-06,3.551940220838e-06,1.18076356895804e-05,1.98007512334783e-05
4.42950421685999e-06,3.48387614524532e-06,1.14866649445853e-05,1.94000453066906e-05
5.08470936206166e-06,4.9092813564575e-06,1.27993465579682e-05,2.27933372764873e-05
6.08911625087295e-06,5.71526213049246e-06,1.15805226290634e-05,2.33849010104288e-05
2.46875448884546e-05,1.99747622421166e-05,3.1807614314424e-05,7.64699214449951e-05
7.85329659346773e-06,5.1872221530745e-06,1.47507089591032e-05,2.77912277056455e-05
2.91082128451392e-05,2.04759755487323e-05,3.34754122532989e-05,8.30596006471704e-05
1.67305424900002e-05,1.6543805005327e-05,3.67954093880145e-05,7.00697568833417e-05
4.09480501560589e-05,3.55805790555188e-05,3.3441734257396e-05,0.000109970363468974
1.14040555913219e-05,6.93352479224669e-06,1.58742068473272e-05,3.42117872308958e-05
5.55656020961391e-05,4.17167120551739e-05,5.07256884464131e-05,0.000148008002597726
1.57537218882499e-05,2.08479928156232e-05,2.3346104931102e-05,5.99478196349751e-05
1.18731495025276e-05,1.01310968475981e-05,2.00208532321498e-05,4.20250995822755e-05
1.34508565201473e-05,7.23225139682107e-06,1.41607438506746e-05,3.4843851767643e-05
9.46908598161051e-05,8.61619029039036e-05,0.000106679607158746,0.000287532369878755
5.40090366376803e-06,1.19401437402119e-05,1.43494606621159e-05,3.16905080660958e-05
6.03980335972963e-06,1.74715202091685e-05,1.42666839559934e-05,3.77780075248915e-05
3.85058409545299e-06,6.54273927210777e-06,1.07225937780055e-05,2.11159171455663e-05
6.28588732664264e-06,5.66288246307801e-06,1.54386912669898e-05,2.73874610567105e-05
7.3593851586628e-06,7.30958364065566e-06,1.62354691934691e-05,3.09044379927876e-05
3.93784192773862e-06,4.1656833611716e-06,1.13247786254198e-05,1.942830391433e-05
5.0495183311012e-06,6.23669145547008e-06,1.18730460549603e-05,2.31592558415316e-05
1.36892128346334e-05,1.57928572839816e-05,2.78029168084223e-05,5.72849869270373e-05
1.52244506295625e-05,1.2805429742589e-05,1.55676139691377e-05,4.35974943412893e-05
7.0805144272007e-06,8.10290078268444e-06,1.78671676282342e-05,3.30505828381193e-05
6.85815124347784e-06,6.84925836275954e-06,1.99736926441477e-05,3.36811022503851e-05
5.41444155132354e-06,6.08269339634364e-06,1.5810062184691e-05,2.73071971323582e-05
5.70923146047286e-06,1.03650754887752e-05,2.02125782798273e-05,3.62868852290753e-05
5.08294386600763e-06,4.52777157675593e-06,1.25659599326771e-05,2.21766753754407e-05
4.81458945922506e-06,4.06808510934154e-06,1.19599288452318e-05,2.08426034137984e-05
7.40078259613778e-06,1.09161941630734e-05,2.0772602171513e-05,3.90895789307242e-05
0.000129363903523604,5.31038109960909e-05,0.000122475108216287,0.000304942822735981
3.27924183648203e-05,6.0076446544248e-05,7.6422442095035e-05,0.000169291307004103
2.93581529135493e-05,1.76089459467076e-05,3.22873554247656e-05,7.92544542850224e-05
1.96128510043194e-05,1.5619268454671e-05,2.88787826411366e-05,6.41109021001269e-05
5.03512057407235e-05,4.05320322637414e-05,6.38496161914671e-05,0.000154732854195932
2.46048384263005e-05,2.13806234761356e-05,5.72164336224356e-05,0.000103201895524872
2.92140368893178e-05,2.12646620595951e-05,4.23256442193588e-05,9.28043431682717e-05
1.42914327879514e-05,1.5337522233957e-05,3.19785460941439e-05,6.16075011160523e-05
6.58831394389247e-05,2.98761380027187e-05,5.04750102554977e-05,0.000146234287697141
0.000100421093360485,0.000101905393282208,8.95939281852234e-05,0.000291920414827916
3.40063428325006e-05,1.73545636029799e-05,3.12473789565466e-05,8.26082853920271e-05
1.98477784986317e-05,1.32074357678335e-05,2.18855768948662e-05,5.49407911613314e-05
1.89582439119767e-05,1.3817259046271e-05,3.13514855226923e-05,6.412698848094e-05
1.99386748105744e-05,1.6493497107234e-05,4.17243224824718e-05,7.81564944002801e-05
7.67817636459072e-05,4.77897580241973e-05,7.6830197918452e-05,0.000201401719588557
9.40330524194841e-06,9.54073731965684e-06,1.70372916300837e-05,3.5981334191689e-05
1.0196691805928e-05,9.57287546382313e-06,1.71407884832687e-05,3.69103557530199e-05
1.50560658207501e-05,1.42503613369588e-05,2.38609845638745e-05,5.31674117215833e-05
4.83374412409929e-05,3.89639104439558e-05,7.34718430424317e-05,0.00016077319472738
8.15360431947451e-06,1.0542737898423e-05,2.28238444065431e-05,4.15201866244405e-05
2.0897066413004e-05,1.24665707384618e-05,2.67141634780803e-05,6.00778006295461e-05
1.87752893525385e-05,2.21593307766148e-05,4.27251445873645e-05,8.36597647165178e-05
2.41540043872875e-05,1.96944283004919e-05,4.40745813623099e-05,8.79230140500893e-05
5.09650169759607e-05,3.12623362711163e-05,6.33351640374451e-05,0.000145562517284522
2.11263796969429e-05,1.37875909164482e-05,2.81979249194327e-05,6.31118955328237e-05
2.96297076685406e-05,1.27789229998862e-05,2.90169844664385e-05,7.14256151348653e-05
7.23274299836385e-06,7.22716093077193e-06,1.89629186409552e-05,3.34228225700909e-05
3.51562321280645e-05,1.90440213123896e-05,4.00296010398175e-05,9.42298544802716e-05
9.198139421369e-06,7.82110783704099e-06,1.90275064362405e-05,3.60467536946505e-05
1.18508459537868e-05,5.79752100217503e-06,1.65077255946318e-05,3.41560925505936e-05
7.51536884607423e-06,6.0027016762701e-06,1.67431780811331e-05,3.02612486034774e-05
1.4197372350093e-05,1.68061606970985e-05,2.60590869547798e-05,5.70626200019712e-05
2.24337589070557e-05,1.94382047149911e-05,3.5491479111389e-05,7.73634427334359e-05
5.687432016536e-05,4.47661599953296e-05,9.63643849931473e-05,0.000198004865153837
4.82357723701047e-05,3.90570549332522e-05,5.92185704967194e-05,0.000146511397800076
3.28856757205356e-05,4.52395032578688e-05,5.13659212681612e-05,0.000129491100246566
2.87188842049222e-05,2.37655724867577e-05,4.25334051921758e-05,9.50178618838556e-05
2.0919858475504e-05,3.49912441790573e-05,4.89863194033963e-05,0.000104897422057958
7.13385585667529e-05,0.000200897866602779,0.000132156929627663,0.000404393354797195
0.000149195817193446,0.000158182483279079,0.000113562118827239,0.000420940419299764
8.653866881687e-05,7.12170204070733e-05,8.05933754356707e-05,0.000238349064659614
0.000146724195112091,0.00011460043882887,0.0001304921646807,0.00039181679862166
0.000160678515118316,0.000145650986183456,0.000183027925315237,0.000489357426617008
0.000100811330451272,9.45054266994098e-05,0.000120242908219659,0.000315559665370342
3.33272012196673e-05,3.38047876512014e-05,5.41460549331392e-05,0.000121278043804008
4.16398387187116e-05,2.22956611748966e-05,4.73323214843905e-05,0.000111267821377999
0.000165467879275388,0.000130627004080261,0.000137793246171506,0.000433888129527155
7.05220070773245e-05,3.70428376128118e-05,7.56132840461754e-05,0.000183178128736312
5.58227375002403e-05,4.01817731245567e-05,5.2736134591671e-05,0.000148740645216468
8.17906449086719e-05,6.08740859005617e-05,7.84585509613578e-05,0.000221123281770591
6.31990253850705e-05,7.49193561992886e-05,9.55279803378784e-05,0.000233646361922237
4.14986821276385e-05,4.19496566210794e-05,4.63148292159601e-05,0.000129763167964678
0.000108904766029035,0.000102080065092314,8.44921562915032e-05,0.000295476987412852
2.63865919107597e-05,1.62557449557039e-05,2.71813432928557e-05,6.98236801593193e-05
5.35907300076447e-05,9.39473478154874e-05,8.68465399947521e-05,0.000234384617817884
1.70106150749566e-05,1.24597784201592e-05,2.59396724961554e-05,5.54100659912711e-05
7.43805675046968e-06,7.60751596816082e-06,1.47874840242593e-05,2.98330567428898e-05
5.15867030992423e-05,5.52250495015955e-05,9.92464301274393e-05,0.000206058182728277
7.33026096964019e-05,6.12257590847256e-05,8.52902603600592e-05,0.000219818629141187
3.22443913505739e-05,4.12409531397058e-05,0.000107351848189349,0.000180837192679629
3.40894994395287e-05,3.1145347479073e-05,7.47149634493915e-05,0.000139949810367993
0.00013538553517867,7.4306610239889e-05,0.00015767235892844,0.000367364504346999
0.000108958064044561,8.88552134205881e-05,9.18230797486524e-05,0.000289636357213801
4.19651610073273e-05,3.33848982334848e-05,4.69202611297265e-05,0.000122270320370539
3.68806075560411e-05,3.05043748039272e-05,7.00281554261319e-05,0.0001374131377861
9.50345680900479e-06,7.4750510892316e-06,1.80339210054529e-05,3.50124289036892e-05
1.73838857865783e-05,2.42006491588626e-05,4.41065453533032e-05,8.56910802987441e-05
2.31415800903765e-05,2.21024018600345e-05,4.13249809864176e-05,8.65689629368286e-05
4.77434371432622e-05,3.82894006498233e-05,7.80210858633574e-05,0.000164053923656443
5.548648369094e-05,3.07192178313815e-05,5.59670997954137e-05,0.000142172801317735
4.15761630992466e-05,3.57630980982878e-05,6.15373440533115e-05,0.000138876605250846
2.58139436572341e-05,2.51749699021287e-05,5.24231606788911e-05,0.000103412074238254
6.7151052015807e-05,8.25180463562829e-05,0.000116843456549256,0.000266512554921346
4.47809580400426e-05,5.32027728433981e-05,8.46227325362709e-05,0.000182606463419712
9.82432040568873e-05,0.000103581037494044,0.000129468289697784,0.000331292531248715
0.000112131134413505,0.000136352009567291,0.000134313763422835,0.00038279690740363
2.73456826643289e-05,2.46518723151918e-05,4.08214922820139e-05,9.28190472615347e-05
5.63326165915706e-05,3.64344000651238e-05,7.24195489530479e-05,0.000165186565609742
9.51861475185575e-05,7.97524782281637e-05,7.84317518934135e-05,0.000253370377640135
6.49152832361118e-05,8.48658665876764e-05,0.000119899287974948,0.000269680437798736
7.5497306564078e-05,0.000104406288511136,9.60021924334664e-05,0.000275905787508681
6.55940159687613e-05,6.58204120250427e-05,8.90948134025472e-05,0.000220509241396351
8.04041081146508e-05,0.000116913813145582,0.00010542696648124,0.000302744887741473
3.63619553678022e-05,6.25053718759724e-05,6.56616724729239e-05,0.000164528999716699
1.94141298218955e-05,4.42788585099739e-05,4.56706757493553e-05,0.000109363664081225
3.24138288264001e-05,4.90775938074289e-05,6.0468514448939e-05,0.000141959937082768
4.07453106679016e-05,5.44057555867664e-05,6.83173704485786e-05,0.000163468436703247
2.563643461802e-05,2.98074379546817e-05,4.43881764066304e-05,9.9832048979332e-05
2.56325221259164e-05,3.79757872252235e-05,5.82028072445129e-05,0.000121811116595653
4.47834294821203e-05,6.19653709035124e-05,7.43288173487591e-05,0.000181077617734392
4.55932345446813e-05,6.10338602041263e-05,7.06401029110029e-05,0.000177267197659811
0.000132563192818048,0.000141825436430378,0.000129262871372237,0.000403651500620663
9.09735869346045e-05,7.13769092639201e-05,0.000105398443729554,0.000267748939928079
1.76834317612006e-05,1.60706703729475e-05,3.88946132251757e-05,7.26487153593238e-05
9.98966616730066e-05,4.5504191287477e-05,0.000103525873005273,0.000248926725965757
7.85468612328561e-05,5.65486737277832e-05,0.000108974981661783,0.000244070516622422
0.000154105579496356,0.000119718806216883,8.96329886193146e-05,0.000363457374332553
0.000104857464315328,9.46422110759054e-05,8.42828149285624e-05,0.000283782490319796
5.85481806269003e-05,3.4720472834538e-05,4.19181242479149e-05,0.000135186777709353
7.8044719992064e-05,4.29946380816664e-05,5.55105544379294e-05,0.00017654991251166
5.30405646729842e-05,4.21223583980067e-05,5.87017799698041e-05,0.000153864703040795
5.66786988438271e-06,4.74342155843469e-06,1.34454486805755e-05,2.38567401233929e-05
2.02040518861681e-05,1.42234347261076e-05,2.2471118372969e-05,5.68986049852447e-05
1.14124272083029e-05,1.11994979992187e-05,2.11837542108812e-05,4.37956794184028e-05
3.8408336534925e-05,3.31237424678519e-05,4.37159070873576e-05,0.000115247986090135
9.08955401964418e-05,5.1485818661821e-05,5.9971399615413e-05,0.000202352758473676
6.87329888663941e-05,4.09099801527908e-05,8.666508561836e-05,0.000196308054637545
9.94456981045984e-05,6.76796881760089e-05,6.39549224095789e-05,0.000231080308690186
1.60601013378293e-05,7.74279856978628e-06,2.02706588434692e-05,4.40735587510847e-05
1.76831609363921e-05,1.23095302409915e-05,2.16896632822775e-05,5.16823544596611e-05
9.95806992093402e-06,6.77370780967877e-06,1.40532937337839e-05,3.07850714643967e-05
6.9418341050097e-05,7.8741222453003e-05,8.29414110123554e-05,0.000231100974515455
0.00011880109571354,4.67379045691528e-05,7.15300965713401e-05,0.000237069096854033
0.00050675948678239,0.00027228154383514,0.000384558771717666,0.0011635998023352
0.00020099409855006,0.000321130200090985,0.000162233339303303,0.000684357637944348
2.3811969211098e-05,3.47207650591293e-05,3.42226198930169e-05,9.27553541632443e-05
5.22134546020684e-05,3.2761338551097e-05,5.96007145289248e-05,0.00014457550768209
1.30413180391469e-05,1.07920670441612e-05,2.11606797931149e-05,4.49940648764231e-05
2.89555470431978e-05,2.14307963085653e-05,2.8099061014788e-05,7.84854043665511e-05
1.29014713531626e-05,9.13196519314594e-06,1.66137494167817e-05,3.86471859630902e-05
8.3052107201212e-06,6.60787312218468e-06,1.50892185076822e-05,3.00023023499881e-05
1.3595782348762e-05,7.82742931752846e-06,2.03926703568103e-05,4.18158820231008e-05
1.28765051842636e-05,1.29321035296175e-05,3.00873595561423e-05,5.58959682700235e-05
4.6446840707024e-05,2.2391512617592e-05,4.06414470137068e-05,0.000109479800338323
1.48239953052795e-05,1.31769886263138e-05,2.64456054163252e-05,5.44465893479185e-05
2.5930012654153e-05,1.89687509886731e-05,3.04222932127865e-05,7.53210568556126e-05
3.58322692947742e-05,2.37841243928288e-05,4.1557896520973e-05,0.000101174290208576
2.69460574807593e-05,2.36828577707083e-05,4.50403333425927e-05,9.56692485940603e-05
2.95038176498449e-05,3.38384963002162e-05,3.59668048808691e-05,9.93091188309302e-05
2.59486707172254e-05,2.06875659491033e-05,3.89398636273203e-05,8.5576100293649e-05
1.96924393302475e-05,1.76722861802555e-05,3.47976757039418e-05,7.21624012144448e-05
1.71131766387735e-05,1.6038836435453e-05,2.83574165080339e-05,6.15094295822604e-05
1.70783225508139e-05,1.34138292544014e-05,2.24103947609582e-05,5.29025465661735e-05
5.03443317500447e-05,2.66619939238647e-05,5.381580326914e-05,0.000130822128943049
1.82509648870423e-05,1.2977453194907e-05,2.57738170991755e-05,5.70022351811247e-05
3.28942157241179e-05,2.05113196155647e-05,3.51782964994928e-05,8.85838318391754e-05
1.30520430798465e-05,1.01497856330276e-05,2.36916606839701e-05,4.68934893968443e-05
2.18489357882575e-05,2.52684626602771e-05,2.70002758487475e-05,7.41176742972821e-05
4.60521136016714e-05,3.70085662621797e-05,6.19235363116627e-05,0.000144984216175514
5.59610874396116e-05,6.07160206151785e-05,7.10070988903186e-05,0.000187684206945109
5.25261868020104e-05,6.66385613454929e-05,6.70220405898273e-05,0.000186186788737331
5.5203374072752e-05,4.47002362173539e-05,4.90350737592747e-05,0.000148938684049381
9.95872414500007e-06,9.398232351316e-06,1.85513255772955e-05,3.79082820736116e-05
5.26272035771355e-06,5.376832187097e-06,1.55418008812392e-05,2.61813534260498e-05
2.38195938520022e-05,3.17174742226817e-05,3.99333249518692e-05,9.54703930265532e-05
4.23643061689127e-05,2.98276790495899e-05,3.90776159865586e-05,0.000111269601205061
4.20044141883033e-05,2.28071846838836e-05,4.03634207418951e-05,0.000105175019614082
4.62461862411815e-05,2.5187027890589e-05,4.51330663405317e-05,0.000116566280472302
4.12260016735112e-05,2.15739441597773e-05,3.71243297455108e-05,9.99242755787994e-05
5.18200513915524e-05,3.56063999955187e-05,4.31780400881147e-05,0.000130604491475186
5.64324683102476e-05,3.12027731310104e-05,3.78089835311691e-05,0.000125444224972427
4.16379303636624e-05,2.80481291377651e-05,4.01167093367122e-05,0.00010980276883814
2.60692004552275e-05,1.65247584953851e-05,3.28211011666294e-05,7.5415060117242e-05
1.46100875333902e-05,1.20696753884028e-05,3.93896533601138e-05,6.60694162819068e-05
9.29275571729132e-06,9.0500896543856e-06,2.5091043297866e-05,4.34338886695429e-05
5.0518527806382e-06,4.82083812065512e-06,1.50846183430852e-05,2.49573092443785e-05
9.57288261591228e-06,6.66850376751834e-06,1.86677619177837e-05,3.49091483012143e-05
2.84735774742249e-05,2.33469871034594e-05,2.94007188994247e-05,8.1221283477109e-05
2.89246540118028e-05,2.22278286021958e-05,2.28181647033928e-05,7.39706473173913e-05
4.29318167110195e-05,3.23571331617811e-05,4.35347707991358e-05,0.000118823720671936
2.16321329383208e-05,2.80323556111861e-05,4.31361417013376e-05,9.28006302508446e-05
2.65641303228366e-05,2.25080518960091e-05,3.77445012947835e-05,8.68166835136291e-05
2.35288813925276e-05,3.08084045589074e-05,6.96773699359682e-05,0.000124014655887403
4.83453052104918e-06,4.1211360436645e-06,1.30535942945274e-05,2.2009260859241e-05
1.49575687135324e-05,1.36270263956166e-05,2.82279972089068e-05,5.68125923180559e-05
2.05456435242553e-05,1.79973540749756e-05,3.75998867099661e-05,7.6142884309197e-05
7.62096613885455e-06,6.4010973231768e-06,1.76571236704311e-05,3.16791871324625e-05
5.89979228456756e-06,5.33068223028892e-06,1.44648917834001e-05,2.56953662982566e-05
4.46709233334496e-05,1.90783853779116e-05,4.35215757220023e-05,0.000107270884433363
1.09467718989837e-05,1.03587684709514e-05,2.0681989803036e-05,4.19875301729711e-05
9.85361885389221e-06,1.23546526796995e-05,2.99692537379853e-05,5.21775252715769e-05
1.60019693238711e-05,1.65758386778503e-05,3.4977320350877e-05,6.75551283525983e-05
1.16515015609328e-05,1.34596742532612e-05,2.5325576074539e-05,5.04367518887329e-05
8.62824456118039e-06,7.66123913516426e-06,1.80258747305004e-05,3.4315358426845e-05
1.29723226787141e-05,7.58624634604878e-06,2.18620032241137e-05,4.24205722488766e-05
1.37950262273168e-05,1.7526088025998e-05,2.90149092540874e-05,6.03360235074022e-05
9.51646786028688e-06,8.9240551774938e-06,2.19732216497777e-05,4.04137446875584e-05
1.1786020713312e-05,1.24771732891885e-05,2.71952807182447e-05,5.14584747207452e-05
5.35740553926104e-06,7.29516475888277e-06,1.70356037495518e-05,2.96881740476956e-05
6.82959547113594e-05,4.04895358552476e-05,5.80470897689117e-05,0.000166832580335519
0.000146611516175765,0.000100036339301035,0.000122433409602892,0.000369081265079693
3.56368954046835e-05,1.62209673865364e-05,6.97798148957327e-05,0.000121637677686953
2.78583446946143e-05,1.46105337078571e-05,6.9768816765046e-05,0.000112237695167517
2.54368365803455e-05,3.0084241831506e-05,3.91709827945175e-05,9.4692061206369e-05
2.39984703569799e-05,1.59147332834801e-05,3.07866308307296e-05,7.06998344711897e-05
7.33560375685411e-06,5.76558559809849e-06,1.59433873961678e-05,2.90445767511204e-05
4.70930147277466e-06,4.30686789344189e-06,1.61401880482453e-05,2.51563574144619e-05
1.61193709873187e-05,9.49529431798023e-06,3.31350007897648e-05,5.87496660950637e-05
2.94895365419417e-05,1.23689896948753e-05,2.43051465366277e-05,6.61636727734447e-05
1.38540456070506e-05,1.32441359476214e-05,2.40322236359732e-05,5.11304051906452e-05
7.7794066469616e-06,7.74187637026078e-06,2.06643587086445e-05,3.61856417258668e-05
2.85534712226527e-05,2.88975265933353e-05,4.89443817471625e-05,0.000106395379563151
4.56523810703293e-05,2.93258754357987e-05,4.22269244880938e-05,0.000117205180994222
2.03674495643003e-05,1.98035349574594e-05,3.00493036974584e-05,7.02202882192181e-05
1.68361747750013e-05,5.71803179115704e-06,1.71513152237869e-05,3.97055217899453e-05
5.13962413912834e-05,6.18777553136721e-05,4.19064234941095e-05,0.000155180420199065
1.3726069613037e-05,6.41505991604846e-06,2.02193340662118e-05,4.03604635952973e-05
3.01160663376505e-05,1.84764021192745e-05,4.09076618448315e-05,8.95001303017564e-05
2.82542154012283e-05,2.22188228100377e-05,4.15908104591543e-05,9.20638486704203e-05
3.00584246568772e-05,2.1694899431893e-05,4.27269623001598e-05,9.448028638893e-05
3.90801228555953e-05,2.7563763617917e-05,6.84478318211558e-05,0.000135091718294668
2.678002963848e-05,1.85239662977132e-05,3.78953390863512e-05,8.31993350225445e-05
6.22472479080853e-05,3.99215075843683e-05,4.67732210449061e-05,0.00014894197653736
3.34986593665652e-05,2.24547386055458e-05,4.81275471785404e-05,0.000104080945150651
1.57935330113124e-05,1.21571172211321e-05,2.60037842346004e-05,5.39544344670448e-05
3.49856493015395e-05,2.0201610012249e-05,4.24809070143337e-05,9.76681663281223e-05
7.09797707289457e-05,3.39783014287614e-05,6.55524540220214e-05,0.000170510526179728
3.70952393081676e-05,2.04571388030465e-05,3.2978798184644e-05,9.05311762958582e-05
5.19208640751476e-05,4.30351915612759e-05,6.84497919598109e-05,0.000163405847596234
3.50704311680923e-05,3.25408760048971e-05,5.22765303621971e-05,0.000119887837535186
3.7159549814196e-05,3.93652457679186e-05,3.46949067529093e-05,0.000111219702335024
0.000147217460667545,0.000129038806126727,0.000108197698988069,0.000384453965782341
1.0063086212223e-05,1.14627036805703e-05,2.47759244556627e-05,4.63017143484559e-05
2.28551785984226e-05,1.74746253869976e-05,3.16287967354055e-05,7.19586007208257e-05
1.43234846701181e-05,8.36149183663924e-06,1.93380764234965e-05,4.20230529302539e-05
1.69923171461946e-05,1.57912124756456e-05,3.93812710570179e-05,7.21648006788581e-05
1.13849443352352e-05,9.36167824309486e-06,1.92495580169726e-05,3.99961805953026e-05
1.02860545687432e-05,8.96654250770139e-06,2.32579255507425e-05,4.25105226271871e-05
1.47658612106685e-05,1.63141693148943e-05,3.29200560798581e-05,6.40000866054208e-05
3.58510788313105e-05,3.13713426662437e-05,4.00841559593695e-05,0.000107306577456924
4.00528122637579e-05,2.25147910295139e-05,3.69821136514597e-05,9.95497169447315e-05
2.7981682177093e-05,1.5662968130427e-05,3.4228577371993e-05,7.78732276795131e-05
5.31227001188571e-05,3.82787896755618e-05,7.30182080749566e-05,0.000164419697869375
4.2868158627451e-05,3.16152671825731e-05,4.42876901851077e-05,0.000118771115995132
5.98885769628365e-05,3.06791469214199e-05,5.63334330512158e-05,0.000146901156935472
4.67162071844412e-05,2.63309762112756e-05,6.39281707055682e-05,0.000136975354101285
2.77269989714866e-05,3.35557848478626e-05,5.96437900191976e-05,0.000120926573838547
4.34173392227255e-05,3.04666169534275e-05,5.10548589715199e-05,0.000124938815147673
6.04929152379075e-06,5.5689304381088e-06,1.68135781789547e-05,2.84318001408543e-05
2.80419556387607e-05,2.53593790897521e-05,4.15491917982879e-05,9.49505265268007e-05
0.000217811700876598,0.000166761549388132,0.000160970989565605,0.000545544239830334
4.2959692944721e-05,3.52368516640539e-05,5.52048698057949e-05,0.00013340141441457
0.000492111478612017,0.000181894185661716,0.000294600608465392,0.000968606272739125
0.000397698170361751,0.000191650138030284,0.00018591788079992,0.000775266189191956
0.000235446342746429,0.000177667026570199,0.000186896951448656,0.000600010320765284
0.000332231280307453,0.000102396902534514,0.000187226901369267,0.000621855084211234
4.02948962847979e-05,4.93667551331201e-05,5.56507670531896e-05,0.000145312418471108
1.36515707415921e-05,1.04828878689539e-05,2.56256400938034e-05,4.97600987043494e-05
0.000903769927833718,0.000668445797822697,0.000351346561249127,0.00192356228690554
0.000398617099693446,0.000386414135075865,0.000261426020857104,0.00104645725562642
0.000241862308745068,0.00023469623153458,0.000240239794478966,0.000716798334758614
4.60480645705383e-05,2.59310349028999e-05,5.21951323385572e-05,0.000124174231811995
6.97939106573082e-05,5.47793614734202e-05,5.77005127946599e-05,0.000182273784925388
4.2658056051009e-05,3.15746556483678e-05,3.76630570806464e-05,0.000111895768780023
4.80583041360766e-06,4.08823893247618e-06,1.27454914949327e-05,2.16395608410165e-05
7.77319727611495e-06,5.95709318715127e-06,1.40537786969792e-05,2.77840691602454e-05
9.19991347436694e-06,8.28548435434279e-06,1.47710079532927e-05,3.22564057820025e-05
5.78880652806669e-06,5.09239423860128e-06,1.33742024924942e-05,2.42554032591621e-05
3.51469635252675e-06,3.19548165845425e-06,1.12884723246198e-05,1.79986503356008e-05
3.96804463409486e-06,3.25001321811357e-06,1.19925058651169e-05,1.92105637173253e-05
1.25277950292251e-05,1.80808544885725e-05,3.33818272958125e-05,6.399047681361e-05
1.22768732240532e-05,1.34794786890919e-05,1.83025810249163e-05,4.40589329380614e-05
1.3158707966252e-05,1.78461845521486e-05,1.88894671345027e-05,4.98943596529033e-05
1.24314122586586e-05,8.97291787900506e-06,1.7668219160888e-05,3.90725492985516e-05
8.42882875955727e-06,6.14213169508458e-06,1.36350033701694e-05,2.82059638248112e-05
7.60149000620417e-06,4.24527274408173e-06,1.22051228690821e-05,2.4051885619368e-05
5.49258560924069e-06,3.82422822376923e-06,1.13188879565711e-05,2.0635701789581e-05
3.99784257039515e-06,3.0570657004235e-06,9.772473428436e-06,1.68273816992546e-05
7.60349845766045e-06,4.63104970683438e-06,1.11110537503943e-05,2.33456019148891e-05
7.11394502727543e-06,4.40885023584593e-06,1.13690390589057e-05,2.28918343220271e-05
6.92370851400918e-06,4.372972011479e-06,1.17613884939261e-05,2.30580690194143e-05
7.11103485615641e-06,5.95579023217596e-06,1.20968230161882e-05,2.51636481045206e-05
1.28375787326942e-05,7.37905021610918e-06,1.41117662818788e-05,3.43283952306821e-05
6.29028753944096e-06,4.21200215749717e-06,1.10734104541904e-05,2.15757001511286e-05
7.46633143219765e-06,5.27320553057067e-06,1.19741923812049e-05,2.47137293439732e-05
3.90904982583546e-05,4.29798105809826e-05,3.57422552776326e-05,0.00011781256411697
3.83465398792606e-06,3.16100507381918e-06,9.89575397777995e-06,1.68914130395252e-05
2.68517227680029e-05,2.3402473481727e-05,2.95658480376929e-05,7.98200442874229e-05
1.89116645232304e-05,2.20384974430829e-05,2.4739873981589e-05,6.56900359479023e-05
2.41340918217974e-05,2.31012427853832e-05,2.38464927871429e-05,7.10818273943234e-05
2.67158671632348e-05,2.72219290472038e-05,2.90853836710148e-05,8.30231798814534e-05
2.19221325178926e-05,1.620623267218e-05,1.9787156431954e-05,5.79155216220267e-05
2.28960700508686e-05,1.8374183548053e-05,2.17936369281985e-05,6.30638905271201e-05
1.92527823745268e-05,1.54607046036635e-05,1.90402826788377e-05,5.3753769657028e-05
9.85807885381919e-06,1.05954890209662e-05,1.25443067577086e-05,3.2997874632494e-05
1.76423762896952e-05,1.77722663858182e-05,1.38532223487116e-05,4.9267865024225e-05
1.86478292866709e-05,1.86478735173021e-05,1.35957873037528e-05,5.08914901077258e-05
6.88365080357688e-06,5.07279977472538e-06,1.04606600403797e-05,2.2417110618682e-05
3.61104949378801e-06,3.2172576376393e-06,1.03194456120557e-05,1.7147752743483e-05
6.00652930208279e-06,4.82021101680575e-06,1.22891718992431e-05,2.31159122181317e-05
7.89478895549499e-06,6.41753799982978e-06,1.18085279279395e-05,2.61208548832643e-05
6.59504089416644e-06,4.09701658990623e-06,1.08906475622447e-05,2.15827050463173e-05
5.94410952392117e-06,5.03928294698527e-06,1.09576166977229e-05,2.19410091686293e-05
6.77921137072412e-06,5.29313989680589e-06,1.12347451927852e-05,2.33070964603152e-05
3.73949219430232e-06,3.08948557542007e-06,1.00848818643314e-05,1.69138596340538e-05
3.99203434106579e-06,3.36923471364047e-06,9.93342788323619e-06,1.72946969379425e-05
4.08029096550524e-06,3.51562275425573e-06,1.03646178376167e-05,1.79605315573777e-05
3.68550721369656e-06,3.08237342966882e-06,9.4302746229669e-06,1.61981552663323e-05
3.46360760091878e-06,3.01705049519595e-06,9.1893606057918e-06,1.56700187019065e-05
3.48781576325152e-06,2.96097829274164e-06,9.4150506744574e-06,1.58638447304506e-05
4.76327848947927e-06,3.51939063298468e-06,1.05902323331081e-05,1.88729014555721e-05
3.88970667488718e-05,4.10247294181221e-05,2.45104704645618e-05,0.000104432266631556
2.95003640505525e-05,2.96101510725446e-05,1.77544336836201e-05,7.68649488067172e-05
4.2700839154058e-06,3.24862292803168e-06,1.09409327257457e-05,1.84596395691832e-05
3.15628392983789e-05,4.72176159876199e-05,3.00320109942647e-05,0.000108812466280264
5.74559387556395e-06,5.05799263967388e-06,1.2603285854561e-05,2.34068723697988e-05
3.0741908595661e-05,2.1402797074345e-05,2.56185444914001e-05,7.77632501614061e-05
2.56634835835428e-05,1.30735222418388e-05,1.64783645448508e-05,5.52153703702324e-05
2.46553484619849e-05,1.45828945542058e-05,1.66076679016149e-05,5.58459109178055e-05
1.28873753992619e-05,1.27334031581825e-05,2.03305585432835e-05,4.59513371007279e-05
8.64134308206722e-06,9.07436895137754e-06,1.57638743490681e-05,3.34795863825129e-05
8.70562803257037e-06,7.24474660390444e-06,1.35468074842292e-05,2.94971821207041e-05
5.40194843234723e-06,5.27948018620375e-06,1.18043262969502e-05,2.24857549155012e-05
6.37687818448908e-06,7.32199824438277e-06,1.13558184036334e-05,2.50546948325053e-05
9.18315191970284e-06,1.23206283642921e-05,1.36546717372412e-05,3.51584520212361e-05
7.17049285546036e-06,9.26434593097886e-06,1.14931754054452e-05,2.79280141918844e-05
6.15039906122324e-06,7.27023234475331e-06,1.07445303290098e-05,2.41651617349864e-05
6.05281359217708e-06,6.70921558827232e-06,1.01119538612054e-05,2.28739830416548e-05
5.68118171572034e-06,5.77031527504891e-06,1.11790683317744e-05,2.26305653225436e-05
5.1719543110332e-06,5.2918526269986e-06,1.00963362183865e-05,2.05601431564183e-05
5.32877394781214e-06,5.71080772539141e-06,9.48796156985081e-06,2.05275432430543e-05
5.61328717392675e-06,5.26207204054844e-06,1.07727328383965e-05,2.16480920528717e-05
6.10518746551346e-06,6.12502867059243e-06,1.08374336306737e-05,2.30676497667796e-05
5.63942351157297e-06,5.86223211576439e-06,1.08311370159072e-05,2.23327926432445e-05
1.32104190382696e-05,9.61993233056729e-06,1.96392991691323e-05,4.24696505379692e-05
1.49145442824702e-05,2.11783093918511e-05,2.49402018686859e-05,6.10330555430072e-05
5.2158826680002e-06,4.61561196329262e-06,1.42270155817327e-05,2.40585102130255e-05
4.89119379913328e-06,4.65490099029693e-06,1.30835285536578e-05,2.2629623343088e-05
5.09580823127219e-06,4.88565718025498e-06,1.28866893400496e-05,2.28681547515768e-05
1.26490173393536e-05,1.30560631742369e-05,1.70920110373754e-05,4.27970915509659e-05
5.50284791576474e-06,5.92888841931506e-06,1.17510959806153e-05,2.31828323156951e-05
5.12796536748714e-06,5.10573748936151e-06,1.11087092328959e-05,2.13424120897446e-05
4.30854494916465e-06,4.0850444615492e-06,1.04350969104294e-05,1.88286863211432e-05
4.25393129571443e-06,4.45588106807297e-06,1.04202562582435e-05,1.91300686220309e-05
3.82773872176651e-05,2.31510317948402e-05,3.16175211997124e-05,9.30459402122176e-05
3.39510619649107e-05,2.39996578720221e-05,4.12590337427131e-05,9.92097535796459e-05
2.20754774235697e-05,2.30857457239308e-05,4.0307371662555e-05,8.54685948100555e-05
1.33484895821667e-05,1.33141882349696e-05,2.36263524708789e-05,5.02890302880152e-05
4.05833179818452e-05,1.44213903953534e-05,3.18105697466979e-05,8.68152781238965e-05
4.61477955236073e-05,2.80717466288203e-05,5.80929814068596e-05,0.000132312523559287
8.10410151572141e-05,6.0992706433864e-05,8.69274408451947e-05,0.000228961162436273
3.21736808259749e-05,3.81202998327387e-05,4.70723724882155e-05,0.000117366353146929
2.85400318233585e-05,1.84921371154263e-05,2.6084451133321e-05,7.31166200721058e-05
2.31922251515854e-05,1.18030068229786e-05,2.20700466376683e-05,5.70652786122324e-05
7.81702699210825e-06,5.14237728326783e-06,1.39875939233519e-05,2.6946998198728e-05
4.13145641495531e-06,6.08492159936643e-06,1.14872375380731e-05,2.17036155523949e-05
3.20715660286392e-06,2.87735897853046e-06,1.04491202311722e-05,1.65336358125666e-05
3.75910144896061e-06,5.8513918943073e-06,1.02811826817448e-05,1.98916760250127e-05
4.32915610607613e-06,8.52104158944747e-06,1.19929794746098e-05,2.48431771701334e-05
2.09791684620072e-05,2.05378543503328e-05,2.20786318107865e-05,6.35956546231265e-05
7.02270449357268e-06,4.68465496762242e-06,1.19039984286356e-05,2.36113578898307e-05
7.50077072597463e-06,5.87085698544381e-06,1.36009377698495e-05,2.6972565481268e-05
1.62562013792994e-05,9.90715015144713e-06,1.65443359452555e-05,4.2707687476002e-05
4.67785313175448e-06,3.86249551965134e-06,1.16216457460453e-05,2.01619943974511e-05
1.01050303632751e-05,1.25441111021542e-05,1.5213427409641e-05,3.78625688750703e-05
3.48207891799568e-06,3.22610321815549e-06,9.03769020283917e-06,1.57458723389903e-05
3.50872161812305e-06,3.08049765970823e-06,9.76072175645373e-06,1.6349941034285e-05
1.46516667982865e-05,7.63867947291069e-06,1.53411554915338e-05,3.7631501762731e-05
3.36624747493153e-06,3.16496382983394e-06,9.86854119961729e-06,1.63997525043828e-05
5.91729458494654e-06,4.77446372797783e-06,1.13451825489696e-05,2.20369408618939e-05
2.57204630301978e-05,2.02928132426075e-05,3.04952197370109e-05,7.65084960098162e-05
8.73505945269694e-06,9.72284448324301e-06,1.5600408175057e-05,3.4058312110997e-05
6.65470976148622e-06,6.54494870126878e-06,1.20229443879537e-05,2.52226028507087e-05
3.53098459037422e-06,3.94542189715834e-06,9.33777078024957e-06,1.68141772677821e-05
4.30747444570175e-06,7.51328156375579e-06,1.16017543635836e-05,2.34225103730411e-05
3.45107242832413e-06,2.98845433890775e-06,9.5427872874024e-06,1.59823140546343e-05
1.31108637947485e-05,1.04146430491563e-05,3.14657456848852e-05,5.499125252879e-05
3.4056329920693e-06,2.86214745288751e-06,9.23691025303647e-06,1.55046906979933e-05
3.48879392530034e-06,2.9481716325721e-06,9.2606479940102e-06,1.56976135518826e-05
3.46835108534929e-06,3.09286737320104e-06,9.08301249942895e-06,1.56442309579793e-05
3.31687610362787e-06,2.87077018737179e-06,8.52689556282077e-06,1.47145418538204e-05
3.40370227786782e-06,2.78749615313887e-06,9.03843234609573e-06,1.52296307771024e-05
9.39227746984601e-06,7.04241552027329e-06,1.31439044013693e-05,2.95785973914886e-05
3.38954312388511e-06,2.92055434537162e-06,9.12356100193501e-06,1.54336584711917e-05
4.23780838995227e-06,3.15664094248597e-06,9.32192050330738e-06,1.67163698357456e-05
3.59829259818433e-06,3.20964235987075e-06,1.01979113754492e-05,1.70058463335043e-05
3.24313270016668e-06,2.8543044488999e-06,9.19304892588771e-06,1.52904860749543e-05
3.34391635902117e-06,2.94938017901496e-06,9.02744253359982e-06,1.53207390716359e-05
3.42261304443823e-06,3.17542388910552e-06,9.06570296515036e-06,1.56637398986941e-05
2.30243020193256e-05,3.00092457283159e-05,4.68084929025911e-05,9.98420406502326e-05
9.38643878842448e-06,8.4483486463286e-06,1.66853865685322e-05,3.45201740032853e-05
7.65402216429588e-06,5.11808682878628e-06,1.32500166070183e-05,2.60221256001004e-05
9.86557629721246e-06,7.74906597838992e-06,1.63343891269799e-05,3.39490314025823e-05
7.91005235354766e-06,1.38180869115622e-05,1.26483217096034e-05,3.43764609747132e-05
5.42901142012254e-06,5.33392719712671e-06,1.1989089828353e-05,2.27520284456022e-05
1.08792084543061e-05,7.8759910578881e-06,1.57233834422266e-05,3.44785829544208e-05
1.23491408751831e-05,8.8724152088721e-06,1.73463007311481e-05,3.85678568152033e-05
1.15346183273247e-05,6.05670761716289e-06,1.39531793036437e-05,3.15445052481312e-05
2.33637259323331e-05,1.87671458730857e-05,2.6593542475054e-05,6.87244142804729e-05
1.10733897715074e-05,1.3327565181438e-05,1.83684033080614e-05,4.27693582610068e-05
4.96951822436267e-05,8.69737842313275e-05,8.37776106264802e-05,0.000220446577101434
2.40752288323281e-05,1.19849532240513e-05,2.70558249045514e-05,6.31160069609308e-05
3.99508531699171e-06,3.98861866165626e-06,1.06234175775801e-05,1.86071215562281e-05
4.07594112159064e-06,3.85547368941462e-06,1.25277942343975e-05,2.04592090454027e-05
4.13360233602545e-06,4.13232454013067e-06,1.03731622621661e-05,1.86390891383222e-05
5.69461726618707e-06,6.02713828262283e-06,1.27419704401642e-05,2.44637259889741e-05
6.25785472550752e-06,4.38433916358874e-06,1.07848084914119e-05,2.14270023805082e-05
3.54077828605273e-06,3.22844601890233e-06,9.45517299737476e-06,1.62243973023298e-05
5.76324499145754e-06,1.09782173702579e-05,1.20052658943904e-05,2.87467282561059e-05
1.44891568573435e-05,2.69402286682926e-05,2.50573215817157e-05,6.64867071073518e-05
5.6982305819309e-06,4.11766119875306e-06,1.22742516510011e-05,2.2090143431685e-05
